ECG_Signal
1.1494070117424775
1.0617406143962707
0.8393804985620228
0.5421711126781492
0.2415222677209239
-0.012236973440740598
-0.19198538098716258
-0.2889765783947801
-0.3125053250315009
-0.2814068180443332
-0.22213065090974282
-0.15699458634896274
-0.10042759235720959
-0.05896984220368312
-0.031385674261974875
-0.012900661880930416
1.6549210769049166e-05
0.010222098446818885
0.0199342469904063
0.03073337773421035
0.04356199530040187
0.05872472604064385
0.07588831803609081
0.09426142376254644
0.11411364113627155
0.1355046946640174
0.15829450711367837
0.18229010067123097
0.20724696464445025
0.23287043610737085
0.25881571055247826
0.2846878418907075
0.31004174245144445
0.33445074545594305
0.3575409478863714
0.37873711649149877
0.39752820409829087
0.41348357971291205
0.4262530285207274
0.43556675188630023
0.4412353673533936
0.4431499086449702
0.4412818256631918
0.4356829844894197
0.4264856673842148
0.4138557251968294
0.3979351725540852
0.3792059003514167
0.35816824108092243
0.33530094736098665
0.3110611919362781
0.28588461177964825
0.2601863347823365
0.23436131848728817
0.208783102459991
0.1838036463922183
0.15975333010202863
0.13694095353376548
0.1156646159598282
0.09614226500709466
0.07836166780347355
0.06228341847272807
0.04786205303882668
0.035046049425941576
0.023777827458449682
0.01399374886093217
0.005624117258174512
-0.0014068218248334116
-0.0071808809628974265
-0.011785930830618888
-0.01531590020239481
-0.017870775952418004
-0.01955660305467667
-0.020485484582954752
-0.020775458891732403
-0.02045011921920101
-0.019279352479925453
-0.017004117007140288
-0.013378250069957492
-0.008168951076593545
-0.0011568391226483036
0.007864047008894644
0.0190862488476685
0.03268888823592252
0.04883766732852279
0.06768586992327827
0.08950075016793156
0.11368619961680314
0.13920970179227068
0.16506516242100344
0.1902729094339614
0.21387969296639475
0.234958685357845
0.2526094811521448
0.2659580970974172
0.2741569721460763
0.2763849674548272
0.2716733113175274
0.26044537511271126
0.24417048444665615
0.2241822485211326
0.20167440919556356
0.17770047510895973
0.15317272237812982
0.12886313993409199
0.10540382068007041
0.08328699018625191
0.06286500668978592
0.04435036109478514
0.02782434594623987
0.01285715012952462
-0.005178935996310491
-0.03017672664212837
-0.06339060271402043
-0.10343651181330628
-0.1464059731367888
-0.1802132260702084
-0.18297639055415796
-0.13656024702477812
-0.02773823402121828
0.15180755181435981
0.410609632930289
0.7068574980629964
0.9632110249088088
1.1228540311639774
1.1501846483526652
1.0308153218269411
0.7816510951951898
0.4766847877452632
0.18266482810341586
-0.055162082793681205
-0.21274043904921766
-0.287205929806245
-0.2939096516109302
-0.2522232665225701
-0.1887412805143835
-0.12381565220666794
-0.07010066311611687
-0.032552917655819004
-0.008457242740441387
0.008221323452206402
0.020630513582125972
0.03131506529652822
0.04214637577053649
0.054322501707187124
0.06836815933742779
0.08413472442012045
0.10127355516100081
0.1200221818566422
0.1403438067818306
0.16214246793914494
0.1852679592296671
0.20951586972734157
0.23462828061704769
0.26029362685957225
0.28614589817055675
0.31183910039110585
0.33700872471515164
0.3610716869478386
0.38349452232661035
0.4038032808153079
0.4215835271041693
0.4364803406098296
0.44819831547532146
0.4565015605700749
0.46121369948991686
0.4622178705570712
0.4594567268201598
0.4528168379190371
0.4423891107711254
0.4286048748262605
0.41189307546765236
0.3926771254632987
0.37137490496598713
0.34839876151329374
0.32415551002758375
0.2990464328160119
0.273467263651258
0.24780700167507427
0.22244709249552447
0.1977632554158003
0.1741256771238822
0.15189860301365812
0.13132902089220308
0.1124570446478395
0.0952968143544775
0.07984650524312613
0.06608832770189306
0.05398852727598533
0.043497384667708645
0.03454921573646743
0.027062371498765427
0.020939238128204876
0.01606623695548735
0.01231382446841286
0.00953649231188079
0.00757276728788913
0.006229824045121763
0.005475260142275563
0.005460105863364685
0.006342147581373955
0.008283079778223505
0.011448505147011416
0.01600848203546347
0.022138804225198164
0.030019673153965518
0.039835673607512556
0.05177541729028742
0.06603142401567327
0.08280012170598844
0.10228266161749339
0.12454191829645725
0.14890229544159475
0.17447354151038275
0.20033983514902143
0.22555978519243397
0.2491664306642671
0.27016724077689047
0.2875441149313971
0.3002533827176031
0.3072267338541424
0.3077957307174305
0.30229460575851697
0.2912901691314052
0.27545788412619426
0.2555818671690775
0.23255488782234404
0.20737836878437685
0.18116244760702174
0.1551263453912405
0.13071917405521374
0.10945652279877886
0.09043150294789838
0.07236671482194494
0.05399741205859596
0.03407150161383341
0.011349543761944143
-0.01539524790448047
-0.04737700647454428
-0.08579721171904645
-0.13020451853496928
-0.16271609681196303
-0.15944002863511872
-0.10293757853350088
0.017629561325657937
0.20649927113695787
0.46217587030261625
0.7603119657256062
1.0170191437633027
1.1660129725979504
1.1717009952867317
1.029182729761764
0.7684901552838013
0.4616289280596898
0.1733233057570121
-0.0539294444369597
-0.19980184580320426
-0.2657317580168927
-0.2631550687498447
-0.21771154813049368
-0.15450986963724475
-0.09160949047066459
-0.04002065155348202
-0.003704377530587305
0.020229250932389586
0.03686194488790181
0.04932007585856434
0.06005535887235841
0.07091799280532869
0.08315666038158323
0.09741852817329359
0.11374924660069458
0.13159922509197938
0.1507791092680679
0.17150516002271243
0.1936715057014114
0.21711997537582992
0.2416400988438007
0.2669691423923232
0.2927942188145803
0.318753467588947
0.34443301502396795
0.36948841943926186
0.3935013855993196
0.4158804256423938
0.4361061244540453
0.4537323955785689
0.4683864812189933
0.47976895223708105
0.4876537081533289
0.4918879771469681
0.49239231605596284
0.48916061037701164
0.4822600742655473
0.471793140868389
0.45781861499376114
0.4407890863945525
0.42120004740361416
0.3995286667407227
0.37623378951258013
0.351755937212813
0.326517307721974
0.3009217753075403
0.27535488944378816
0.25018184145329647
0.22574329039841665
0.20236039160161456
0.1803361153446582
0.1599473479437586
0.14131068030802074
0.12441603523295788
0.10923874253215676
0.09574232651820827
0.08387850600270635
0.07358719429624908
0.06479649920843797
0.05742272304787862
0.0513703626221799
0.04653210923795462
0.0427888487008194
0.040009661315394254
0.03805182188530318
0.03675659938608673
0.03593373999501992
0.03570475544456657
0.036279441815436936
0.037860116856346555
0.040641619984015935
0.04481131228317151
0.05055042554776107
0.058041265996353245
0.06746200289986089
0.07898333487897001
0.09276848222237152
0.1089731868867621
0.12774571249684324
0.14928078448848003
0.1732207680195452
0.19842393980330458
0.22377920395978612
0.24823613934113306
0.27080499953160453
0.2905567128475756
0.3066228823375368
0.3181957857820947
0.32452837569397125
0.3249342793180044
0.3188093692505919
0.3066209924035064
0.28958255989750425
0.26884816626644836
0.24550240486478903
0.2205603678675661
0.19496764627040303
0.1695998771707699
0.14525658243562284
0.12266277183507165
0.10247382963192977
0.08508894918559302
0.06926712190753068
0.05289631486315775
0.03364110961976786
0.008943908619992894
-0.023975956649275716
-0.06591779938082078
-0.10759649302675173
-0.1351447239357909
-0.13233399454662687
-0.08057462338791453
0.03675836690548077
0.22784757095462732
0.483871081386872
0.7716263452570942
1.0335088784396824
1.191135759021148
1.2004964731697634
1.0647462047614218
0.8137541186727124
0.5038577680966873
0.21392239017986964
-0.011390931989599586
-0.15894414474074472
-0.22709832156483326
-0.22734101422538816
-0.18289369582402706
-0.11813353523056346
-0.05330190943863007
-0.0008254651594866861
0.03502009392583467
0.057937659942805114
0.07360611926214743
0.08532976601136047
0.09577289013378355
0.10674716567717794
0.1192116507937262
0.13327278774003223
0.1487047861049996
0.16573600379450795
0.18436918160786447
0.20455236125603687
0.2261799358893745
0.24909265009760934
0.2730775999098547
0.2978682327946066
0.3232330500929588
0.34885181413155275
0.3741760001564395
0.39868877797175084
0.4219091863009988
0.44339235136865757
0.4627301426449107
0.47955051710090374
0.49351730062716276
0.504330188033595
0.5117247430494869
0.5154723983235064
0.515312143715497
0.5109437703917926
0.5026774947128668
0.4908912623382099
0.4759631214779446
0.458271222892827
0.438193819894245
0.4161092683442198
0.3923960266554052
0.36743265579108814
0.34159781926518795
0.3152702831422567
0.2888289160374797
0.2626526891166747
0.23712052073209364
0.21261053503280145
0.18950063767665232
0.16812099276378117
0.14850874726635244
0.13064335706048305
0.11449986480444972
0.10004260269679711
0.08722519247633874
0.07599054542215627
0.06627086235359957
0.05798763363028717
0.0510516391521059
0.045362948359210814
0.04081092023202537
0.03727420329124163
0.034620735597819606
0.032707507837170184
0.031334175215539856
0.030586915338359173
0.030705899708047574
0.03191894994497173
0.03444153778744533
0.03847678509172924
0.04421546383203135
0.05183608063802256
0.06150589149149158
0.07338057121669868
0.08760346052961512
0.10430555026415923
0.12360525252017614
0.14567365112635536
0.17025894333968353
0.1961383173477332
0.22211067445190466
0.24706348199300182
0.26997277335123143
0.2899031479462036
0.3060077712369314
0.31752837472183154
0.3237952559387234
0.32422727846482985
0.31830571677651986
0.3060819613891479
0.2888541369661631
0.2679368119738686
0.24452327291772186
0.2196855243423337
0.19437428883146904
0.16941900700804696
0.14552781694840247
0.12328674507935389
0.10315944073743144
0.0855667938832131
0.07049821017540688
0.05420992425262149
0.03335245528716627
0.005921699664895729
-0.028741069014790847
-0.06995187463579917
-0.11432958011675395
-0.14260054138693848
-0.1335911860659511
-0.07127661861259979
0.05521937967509712
0.2516243506599121
0.5228965601116555
0.8230246989507064
1.0662505122622121
1.194626964528378
1.1794961665175399
1.0214893752841658
0.7535339915622324
0.4476493821998237
0.16410783391180497
-0.05746458866310244
-0.1969225298054851
-0.2536005300934017
-0.24601440367635286
-0.19790700804870018
-0.13254761889410738
-0.06910833496070269
-0.018979019506345722
0.01423222599101243
0.03468551664696913
0.049145084684026126
0.06022852285692249
0.07023340638441819
0.08078095409150172
0.09281602840939056
0.10660713537553085
0.12185946782656547
0.1386694678317322
0.15708818479320563
0.1770596078192516
0.19847310403866314
0.2211634186007606
0.24491067467539165
0.26944037345293204
0.294423394144284
0.319585134329013
0.34452670023412635
0.3686748286033439
0.39150437121123016
0.41253892658825764
0.43135084007063945
0.4475612038003289
0.46083985672501965
0.47090538459814607
0.4775251199788825
0.48051514223214353
0.4797402775285849
0.47497551116859316
0.46625192400133086
0.45397286530777087
0.4385415115846022
0.42035899420264267
0.3998243994068388
0.37733476831626606
0.3532850969241272
0.3280683360977545
0.3020753915786088
0.27569512398227874
0.24931434879848233
0.22331783639106567
0.19808831199800295
0.1740062546705174
0.15144536870657221
0.1306117363947167
0.1115127156654679
0.09414432262860228
0.07848925953031013
0.06451685272339809
0.052182866577894754
0.04142968957044421
0.032186396314105595
0.02436874755835151
0.01787919018906882
0.012606857228558985
0.008427567835537114
0.005203827305132925
0.002784827068889879
0.0009784167341759915
-0.000354285926619203
-0.0010048601483014538
-0.0007454109943189368
0.0006394748608719021
0.003352729131806305
0.007584801922012448
0.013513661724009633
0.02130479541930908
0.031111318951113333
0.043077611414030194
0.05734013481449691
0.07402314618935668
0.09323842096444526
0.11508714630731594
0.1390994690032504
0.16415995049710522
0.18917232520544255
0.2130872283914104
0.2349021961647418
0.2536616654817558
0.2684569741453567
0.2784263608050341
0.282754964956864
0.28069698837824913
0.27234389368629636
0.2585784050277256
0.24032712039228402
0.21853649100855152
0.19417282134394048
0.1682222691046964
0.141690845235897
0.11560441392145299
0.091008692584108
0.06905546495861532
0.04998337766906139
0.03252642028474179
0.01519385796817483
-0.0036777078036066783
-0.02592433923905504
-0.05355476223210875
-0.08875037003657782
-0.1360908944263726
-0.1857751480891215
-0.2089946024273977
-0.18435714296394928
-0.0987759706927832
0.05253039792083487
0.2660381309403802
0.5299180809580697
0.8175234609289126
1.051268240671997
1.1601967922279415
1.1138401081499494
0.9222982765500836
0.6365445190885886
0.3305430671483525
0.060678689786248644
-0.13955467271401625
-0.25493099099028665
-0.2907927942225671
-0.2736819451306086
-0.22637664224930834
-0.1670779242487677
-0.10940967016652826
-0.062418599407572266
-0.030548868194592918
-0.010614257912492658
0.00288031719632009
0.01316581387798889
0.022690235601374623
0.03311863255805508
0.04533310166232559
0.05943278655119852
0.0748687474086872
0.09179274808765223
0.110304197656113
0.13033933082513172
0.1517803387098039
0.17445536882925755
0.1981385251066542
0.22254986786918854
0.24735541384808807
0.27217399890130034
0.2967070563270013
0.3204471519082435
0.342841926295801
0.3633954317136973
0.3816678464196619
0.3972754708727446
0.4098907277333159
0.41924216186306656
0.4251144793630992
0.42734866468820004
0.4258418635325667
0.4204704518448101
0.4111884900809592
0.3983826207764154
0.382460750641185
0.3638290986388058
0.3428921959863455
0.32005288615440425
0.29571232486711146
0.27026998010212894
0.24412363209064838
0.21766937331739286
0.19130160852061648
0.1654130546921039
0.1403947410771713
0.11663600917466496
0.09449865436971572
0.07411059383457452
0.05547605420942671
0.038586669634845236
0.023421695085951162
0.009948006372412433
-0.0018798998615544773
-0.012119906137186264
-0.020842274141171103
-0.028129644725649928
-0.03407703790821617
-0.03879185287191531
-0.0423938679652451
-0.04501524070215596
-0.04680050776205004
-0.04790658498978244
-0.04846619832161145
-0.04837531543120651
-0.047442300422966314
-0.04547604311607945
-0.042285970167026996
-0.03768204506958277
-0.03147476815481374
-0.0234751765910772
-0.01349484438402519
-0.001345862050684975
0.01316285434179084
0.030229856329688144
0.05021308567070615
0.07310453419174201
0.09776925719540709
0.12308555220484801
0.14799993900390823
0.17152711265234807
0.19274980253150503
0.21081891329863378
0.2249535718716859
0.2344411274293093
0.23863715141084918
0.23696543751634713
0.22894523086846533
0.21493964171290023
0.19616159751777784
0.17379986009532622
0.1489740733429471
0.122734763243216
0.09606333786388258
0.06987208735787016
0.045004183963275685
0.0222336820033703
0.0030165675200141
-0.013433185573268237
-0.030279989568031403
-0.04998936303738563
-0.07430528038020338
-0.10425017178099366
-0.14012492320990186
-0.18150887642270955
-0.22552075613741152
-0.2510101503667066
-0.23439221887751385
-0.15969385447522969
-0.018561096344460338
0.18974086995097872
0.45850637910070147
0.7498021830651873
0.9831762881339524
1.0991489907395287
1.0662300657977057
0.8826524929227314
0.6010127134859761
0.29557508836131086
0.02156878826487993
-0.18605043008196454
-0.30846762607642514
-0.3510538479688385
-0.3393078412629045
-0.2951980724199775
-0.2366868833515293
-0.1777314144300884
-0.1282836140412891
-0.0942417113672511
-0.07298381672637837
-0.058681105720223115
-0.04792853407889492
-0.03813854243312322
-0.02754112787680535
-0.015183867821189233
-0.0009319199948735755
0.014657001758333833
0.0317268382614901
0.050396549169472324
0.07060989511761116
0.09225741715298626
0.11517643673442686
0.13915105573251144
0.16391215642956788
0.18913740151967331
0.21445123410865458
0.23949105139871799
0.2638988244577277
0.28710056938662837
0.3085698167845334
0.3278407242257463
0.34450825111122774
0.3582281672218417
0.3687170527183552
0.3757522981414383
0.37917210441166477
0.37887548282951095
0.37482225507535655
0.3669323419762122
0.3553503588349866
0.34048261960363163
0.3227354356141374
0.30251437508983625
0.2802242631454017
0.2562691817868497
0.23105246991153772
0.20497672330816458
0.17844379465677193
0.15185479352874248
0.12561008638680066
0.10010929658501316
0.0757513043687881
0.05285618282258328
0.03152550316193341
0.01182185854327856
-0.006212804492554696
-0.022557506981114566
-0.03721227294252914
-0.0501981293815062
-0.061557106287332984
-0.07135223663387652
-0.07966755637958348
-0.08660809617887026
-0.09229985651629392
-0.09688983257238132
-0.10054602251223904
-0.10347302594103466
-0.1058179025125882
-0.10746704736319375
-0.10828005684867868
-0.1081121441963958
-0.10681413950522309
-0.10423248974556458
-0.10020925875934943
-0.09458212726003236
-0.08718439283259345
-0.0778449699335385
-0.06638838989089868
-0.05263480090423237
-0.036400160483344844
-0.017496812764476476
0.004219723646308783
0.02822586402098108
0.053575235797309266
0.07931212850848922
0.10447572606496734
0.12810010675444053
0.14921424324185584
0.166842002569411
0.18000214615655383
0.18770832979998273
0.18908906936342268
0.18426171455394397
0.1738524021033973
0.15857164690732878
0.13921306835795308
0.11665339034415394
0.0918524412514838
0.06585315396216429
0.03978156585508575
0.014846818805807432
-0.007115545154494588
-0.026126200580109844
-0.043822996269853656
-0.06171549506025793
-0.0811826124139936
-0.10347321537014303
-0.12970672716153642
-0.16087313187960106
-0.19783297447436118
-0.24101856875536318
-0.2785151312929971
-0.28585846110790203
-0.24396351901930222
-0.14030736478976366
0.03107095050674422
0.269681210420512
0.5646483857420702
0.8402991398145044
1.0231785740445025
1.0701468850985425
0.9683793649028989
0.7363173566100822
0.4354474252022245
0.1355995714649908
-0.11449143309457668
-0.2875941536161723
-0.3779804918862259
-0.39694326397346147
-0.36309300541109724
-0.3035293166680957
-0.23887670340812256
-0.18261813334479945
-0.1410949663774445
-0.11349589347723359
-0.09461301037926784
-0.08103990943736625
-0.07018992867779218
-0.06001679469736689
-0.049014622663468926
-0.03621791631403442
-0.02120156795755691
-0.0040808584730875706
0.01449203272372799
0.0343111061565908
0.05562205539847582
0.07827489545025063
0.10207531231461033
0.12678466299607793
0.15211997550100392
0.17775394883756668
0.20331495301577235
0.2283870290474548
0.2525098889462753
0.27519506894929235
0.2960896920274109
0.3147076815300051
0.3305824967760641
0.3433321803182339
0.3526593579428166
0.3583512386697701
0.3602796147527085
0.35840086167890234
0.3527559381692783
0.3434704596037354
0.33075491829709397
0.31486360515982403
0.2960225817698353
0.27472057900401037
0.2514556900587934
0.22670328895670075
0.20091603054632007
0.17452385050231053
0.14793396532540315
0.1215308723424002
0.09567634970617615
0.07070945639567619
0.046946532215917866
0.024685013813301643
0.0041062282169323176
-0.014755230177121135
-0.03188933505087922
-0.04730273728477044
-0.061017992868294985
-0.0730735629000249
-0.08352381358760405
-0.09243901624774806
-0.09990534730624442
-0.10602488829795237
-0.1109156258668028
-0.11471145176579879
-0.11756216285701467
-0.11963730117617745
-0.12124881868881643
-0.12231893448074291
-0.12259302137747254
-0.12183466315501235
-0.11982565453986083
-0.11636600120900796
-0.11127391978993503
-0.10438583786061517
-0.09555639394951254
-0.084658437535583
-0.07158302904827384
-0.056239439867523854
-0.03855489426332
-0.018472844211105104
0.0040459669017310195
0.02889292677844702
0.0550909372536069
0.08142335025451769
0.10675470293129766
0.13003071770854793
0.15027830228535394
0.1666055496352841
0.17820163092852218
0.18433647429826092
0.18435606751719888
0.17800454177154149
0.1660574140900472
0.1494592396858322
0.12916618054943993
0.10614600544884333
0.08137808992944291
0.055853416314068434
0.030574573702977354
0.0065557579738559305
-0.014967277921893226
-0.03321522789572668
-0.04982774392254988
-0.0665482040451192
-0.08501588838978096
-0.10676583681929823
-0.1332277582329848
-0.1657259912876844
-0.2054835650889938
-0.25014770257971997
-0.27949928535924573
-0.2722940898890783
-0.21258337656478044
-0.08971388971597069
0.10167214239367689
0.36390801378280724
0.6632988775650359
0.9159626007073635
1.060931927762909
1.0650690731231307
0.9230657210178699
0.6627122193900564
0.35613628995084057
0.06741653397429204
-0.16100419115552114
-0.30808448326329174
-0.3741843953820896
-0.3739049592258177
-0.32885568158260875
-0.26524005955654634
-0.2018966556948534
-0.15020517667682617
-0.11408672697940443
-0.0903555287620305
-0.07407938682100489
-0.062086822826236725
-0.05186227175924595
-0.04151587160816352
-0.029783463367751725
-0.01602650496985391
-0.00023181307482385543
0.017017654954012203
0.035672244928970025
0.05590137672665568
0.07760545283128567
0.10063456503360087
0.12478849443090145
0.14981671142700545
0.17541837573229213
0.2012423363636574
0.22688713164455887
0.2519010062761743
0.2759129506966032
0.2984708945697275
0.31902874492676503
0.33711196540956045
0.35232105286392074
0.3643324523683498
0.372898557234075
0.37784770900502634
0.37908419745785094
0.37658826060190514
0.3704160846792558
0.36067467412924203
0.34744138447403794
0.3311283937387859
0.31219782609104363
0.291099978752891
0.2682733220008977
0.2441444991661582
0.21912832663425386
0.193627793845294
0.16803406329387205
0.14272647052911097
0.1180725241546177
0.09442790582852795
0.07213288184513522
0.0513967380687903
0.03227220071503051
0.014786621430224547
-0.0010470064220603433
-0.01523210242553442
-0.027790017409034907
-0.038760039077647204
-0.04819939201272693
-0.05618323767188081
-0.06280467438898332
-0.06817473737416221
-0.0724223987138109
-0.07569456737057816
-0.07815609618610488
-0.08004247009075931
-0.08141193099682328
-0.08205954511865453
-0.08178418197905585
-0.08039219078369456
-0.07769740042110133
-0.0735211194626734
-0.06769213616266864
-0.060046718458214444
-0.050428613969296
-0.038689049998770896
-0.024686733532351235
-0.008287851238625334
0.010633854692360657
0.032196574837151826
0.056280310410336015
0.08196722016771106
0.10819812553250822
0.13393749180583325
0.15817342816671337
0.1799176876720516
0.1982056672566695
0.21209640773326877
0.22067259379246337
0.22307210075129777
0.2191809088520586
0.2096101209947479
0.19507765385923762
0.1763869007279421
0.15442673148579342
0.1301714926202729
0.1046810072213735
0.079100574981642
0.05466031208635859
0.03237701596816529
0.012424574325665643
-0.005549198559601191
-0.02235390745573458
-0.03925658065823971
-0.057981934180264434
-0.08071251951997029
-0.11008834304756031
-0.14934160079435063
-0.1957321138512808
-0.23053706774767227
-0.23538770606053036
-0.1946715663956733
-0.09553248038772442
0.07212942629980201
0.32018008617993804
0.6194641858691756
0.8880349379640663
1.0645248749881833
1.1111940687129123
1.0139301301571777
0.7839726142962179
0.48391413497322217
0.18528299428787354
-0.06316333976286094
-0.233662067180004
-0.31944505596215367
-0.3341276132596522
-0.29758229336481873
-0.2355142202649207
-0.1697866347947507
-0.11425152267550906
-0.07475151841393664
-0.0491672492208036
-0.03175541135839586
-0.019084044211799128
-0.00841380660036823
0.002274807691591124
0.014281469914800705
0.028186016355030978
0.04384844833307793
0.060865924665398884
0.07950596645114402
0.09974337212330647
0.12148814618960165
0.14459568456190278
0.1688667745562018
0.1940475948926454
0.21982971569551946
0.24585009849323242
0.271714694846499
0.29710037514261933
0.321455044586384
0.34423394819210873
0.36495301255536927
0.38318830104817214
0.3985731046279128
0.41080004642877893
0.4196224280639605
0.42485423272787803
0.4263701251961997
0.4241054518258309
0.41791792246542475
0.40795422322846786
0.39463371190354646
0.3783724627175096
0.3595832585826954
0.33867567289696127
0.31605631494365677
0.2921285844916544
0.26729258999530786
0.2419451485944944
0.2164797861145702
0.19128673706641608
0.16675294464639157
0.14326206073638093
0.12119082468799466
0.10076362041678442
0.08200638487731042
0.06492084958908849
0.04949594725803271
0.035709843383167024
0.02352940764738077
0.012908602638042258
0.003788442851725727
-0.0039030053057690266
-0.010250623519433098
-0.015352241565034924
-0.019318637309131463
-0.022273536709059075
-0.024353613812940725
-0.02570849075968042
-0.026483955732900976
-0.026619959498954723
-0.02592269917863027
-0.02419610686814493
-0.02124343404766693
-0.016867251581318896
-0.010869449717172111
-0.003051238087254851
0.006786854292458805
0.01884497902203453
0.03332396831759609
0.05042533501130247
0.07045384451473546
0.09362102517743276
0.11885917841576608
0.14502485327049736
0.17104242634938388
0.1959040898270236
0.2186698514449
0.23846753451133976
0.2544927779015517
0.2660090360575924
0.2723475789883943
0.27290749226974537
0.267167874742946
0.25535109907796666
0.23860367538980523
0.21807969008766462
0.1948867841425036
0.1700862224253583
0.14469289370730215
0.1196753106594878
0.09595560985310486
0.07464455452502011
0.05801523236795764
0.04328171515516874
0.027227900544809232
0.007561710868511955
-0.01708490829893034
-0.047157112991588306
-0.08217918057121561
-0.12075190877637805
-0.16053658413283536
-0.1878751602578179
-0.1749420610963195
-0.10220905504309498
0.03949063209826233
0.24896231711518327
0.5146498593863715
0.8062224426984931
1.045184903516569
1.164747001682088
1.1313002907445195
0.9458043709769353
0.663655703839394
0.3597949199675929
0.0900576893250116
-0.10986813076048753
-0.2256878487231206
-0.2670702033042462
-0.2506049235903257
-0.19638039430498277
-0.12798365580899504
-0.06827917228124464
-0.023038619448657933
0.008240464273412986
0.02808348343706547
0.04105557550671245
0.052320673044477836
0.06341623422639697
0.0752065200198449
0.08829640766521281
0.10302063450332848
0.11944379797543175
0.13743911816572404
0.15702102234283874
0.17811629490925485
0.20059020608465578
0.2242556400677031
0.2488729916430589
0.27415013171711666
0.29974240731795737
0.3252526415953886
0.3502311338209277
0.3742771391640349
0.3969954358466051
0.4177930108403478
0.43615359104072243
0.4516443068058235
0.46391546675214257
0.4726978546467394
0.47780360987060283
0.47912823324674403
0.4766506290608294
0.47043310506117664
0.46062137245875134
0.44741676290956767
0.43094226017480586
0.41167287857607193
0.39013559328519887
0.36683111584368827
0.34223389416267436
0.3167921125229643
0.290927691574995
0.26503628833887743
0.23948729620435197
0.21462384493083334
0.1907628006473656
0.16819476585266635
0.14718744287181912
0.1279481605459653
0.11047714984970328
0.09473369708323212
0.08066905773292152
0.068226498225261
0.05734293702507848
0.04794948302738267
0.03996936635312595
0.03331778630945441
0.027901911389693477
0.02362087927335899
0.02036579682614878
0.01801974009994945
0.016457754332830754
0.015548472270234566
0.015291435320488312
0.015876673108914725
0.017508204323865382
0.020391725061833385
0.024734650677042155
0.03074607393185453
0.03863675104691897
0.04861910170115837
0.06090720903178472
0.07571681963428047
0.09326534356242146
0.11392915644830426
0.137351983173165
0.16252642882630744
0.18846362935937572
0.2141937775186102
0.23876448753833437
0.2612430556363059
0.28071688333718314
0.2962934774724852
0.3071004501806263
0.3122855189068888
0.3110332583904577
0.30329341523525843
0.2900456154035377
0.27233306937881885
0.251187095237813
0.227627118650451
0.20266067287984554
0.17728339878233304
0.1524790448074295
0.12921946699787495
0.10857416381934513
0.09083844325487264
0.07447504767334855
0.05774464592517497
0.03881643831711432
0.01576815661232052
-0.013413935969696016
-0.05083504475302593
-0.10016782508416942
-0.14267705960549432
-0.1522452786570624
-0.11032039690504503
-0.005916162881919722
0.1643878410134441
0.3964461985159751
0.6779333178539946
0.9567622659619998
1.1474495932226028
1.1969840974414139
1.0900156651032458
0.8504551586896241
0.5479677965131596
0.2527549958322036
0.011953910141468209
-0.1503082019431145
-0.22489543554476102
-0.23178910517345547
-0.19659885887951947
-0.1403394125338088
-0.07943054982775388
-0.025697122273277202
0.013630950797110788
0.03818432007357198
0.054361523704416125
0.0661045889801558
0.07637754690575078
0.08721523293910528
0.0997233038150263
0.11407823754524285
0.1297643937738913
0.14702259312374824
0.16592547929892115
0.18641971674520802
0.20839571507405588
0.23168762906259555
0.25607335865360403
0.2812745489555451
0.30695934854340684
0.3328849315169789
0.35857679774585566
0.3834571018227291
0.40699604722400495
0.428711886309841
0.44817092032412964
0.46498749939448614
0.47882402253227735
0.48939093763259267
0.4964467414742674
0.49979801807010754
0.49929992696504355
0.49468053230124664
0.4860676448346116
0.4738751923055435
0.45851477233150456
0.4403956524070349
0.41992476990372585
0.3975067320702517
0.37354381603233433
0.34843596879278166
0.3225808072314457
0.2963736181052675
0.2702073580482311
0.24447265357140915
0.21955775728712784
0.19584841658163837
0.17371988900373292
0.15333628348591402
0.13470092001431752
0.1178111671695689
0.10265034665699257
0.08918773330664281
0.07737855507327579
0.06716399303637419
0.05847117847619828
0.05121240450983997
0.04528405922314335
0.04056821738377639
0.03693290688411728
0.034232108741262694
0.032304594649944667
0.03096950205801263
0.030311076846471437
0.03051129002866081
0.03175253314143377
0.034217618245156844
0.03808977792371148
0.04355266528449044
0.050790353958404436
0.059987338099872174
0.07132853238683334
0.08499927202073239
0.10118531272653879
0.12007283075272226
0.1418507019033879
0.166008831770951
0.19153651369131675
0.21742811675095056
0.24268675864686184
0.2663243056865596
0.2873616177661628
0.30482947914886377
0.3177677750159807
0.3252251392251258
0.32626777636179005
0.32073058714210295
0.309443376259004
0.2933123949039105
0.27326687231521196
0.2502590157782982
0.22526401062552356
0.19928002023624752
0.17332818603679126
0.14845262750048271
0.1257156391299114
0.10568489541374226
0.08776455806340867
0.07078183643323699
0.05306833776540191
0.03246006718995876
0.0062974277248100795
-0.02857594474652744
-0.0725779690076866
-0.11432509421376495
-0.1385339861212871
-0.12842700342193514
-0.06573208412457843
0.0669569487759238
0.27351312041484127
0.5380880289488715
0.8221301613175869
1.064276145025317
1.1838458229001878
1.144307324174906
0.9669642311579292
0.6928696072492295
0.38166717319993043
0.10694053296504026
-0.09569629513484666
-0.21910118750760565
-0.2661438297151128
-0.25066508687570144
-0.19732740899169102
-0.1322039382389256
-0.07132657071083712
-0.02404621828652827
0.006967565608044638
0.02572658599999039
0.03919117589252819
0.05000421018009289
0.06023091818783786
0.07128168512422037
0.08391186971178193
0.09822333614904177
0.11402746052278905
0.13147540584902467
0.15055062128329288
0.17118022780130268
0.1932363489243807
0.21653611071943338
0.24084164179898765
0.2658600733211487
0.29125864075790386
0.31677933635397404
0.34190118913878875
0.3660699117055123
0.3887772301191878
0.4095604396240132
0.42800284893606355
0.4437339283408152
0.4564293096931784
0.4658107864174693
0.47164631350743236
0.473750007526227
0.4719381944819138
0.46596273507112895
0.4561306905273354
0.44283925502227395
0.4264853001828271
0.4074648794159515
0.38617322790870606
0.3630047626282193
0.33835308232172623
0.3126109675165276
0.28617038052003385
0.2594224654197191
0.23275754808316831
0.20656513615802957
0.18123391907206132
0.15715176803308656
0.13468825376370225
0.11397233795062595
0.09500320984003491
0.07777410534226041
0.06226588278092646
0.04844702289292008
0.0362736288284179
0.025689426150862605
0.01662576283698348
0.009001609276778736
0.0027235582735308647
-0.002315235217925135
-0.006238638719316938
-0.009184168954258214
-0.011301720265439038
-0.012754828874084412
-0.013552759058799489
-0.013524991290617253
-0.01249280457733009
-0.0102750062414758
-0.006687931920340109
-0.0015454455659519983
0.005341060554909584
0.014162665860724701
0.02511292145522084
0.03838785012738745
0.054185946351457764
0.07271048892196467
0.09449965692827028
0.1189420119406517
0.14478139395695352
0.17084921608442502
0.19606446453967577
0.2194336986487203
0.24005105084693518
0.2570982266790986
0.2698449174704038
0.27765226531249787
0.2799711100175023
0.27633988626887585
0.26641444233567046
0.2507237301158374
0.23061968613790876
0.2073857174050987
0.18219194568672015
0.15609520751814598
0.1300390542008518
0.10485375180237103
0.08125628115633983
0.05985033786245401
0.04154635984174061
0.025514575526311783
0.008451885689726683
-0.012253135649108203
-0.03843721917377828
-0.07116240027039858
-0.11071601902756707
-0.15725929569229563
-0.1957719409791485
-0.20035693951397682
-0.15234906148267607
-0.04069701049589315
0.13803391094006465
0.37966168942148365
0.6691384343828671
0.9392155924998307
1.111955719872722
1.1428836575279013
1.021611596580098
0.7741917885288042
0.46973575087812697
0.17520925453313124
-0.0645583860983851
-0.22698421201859326
-0.30473736369246557
-0.3105687332671929
-0.27305332402736926
-0.21519010994828988
-0.15419131003022404
-0.10148242748318659
-0.06270221054217863
-0.037702639405479695
-0.021062568652180168
-0.008405336524984517
0.0022777275797059224
0.012585719019917022
0.02369802822084479
0.03637580391589865
0.05096340267278415
0.06738580936371605
0.08522263205735041
0.1045321995840205
0.12530747036159193
0.14740703174056694
0.17064200750538588
0.19477605787446572
0.2195253795001598
0.2445587054687994
0.26949730530065114
0.2939149849499605
0.31734554380674557
0.33944886125974516
0.3597293651047115
0.37766871160322685
0.3928294378565056
0.4048549618054274
0.41346958223051
0.4184784787519306
0.4197677118295092
0.4173042227627209
0.41113583369068935
0.4013912475921882
0.3882782686830836
0.37193207969304226
0.35271193492930836
0.33112410555262706
0.30765256330222246
0.2827589804958352
0.2568827300296816
0.23044088537849777
0.2038282205954933
0.1774172103123978
0.15155802973941482
0.1265785546652682
0.10278436145715557
0.08046370351512074
0.05986183222300541
0.04099942668736038
0.023850390597562297
0.008380374774636682
-0.005453257034789645
-0.017701393952444515
-0.028423166566428806
-0.03768594693119519
-0.045565348567567165
-0.05214522646272194
-0.05751767707020549
-0.061782911916807674
-0.06504831127610748
-0.06742895594169988
-0.06904816403189534
-0.07003774650896896
-0.07041780757016895
-0.06997574071389967
-0.06848129217158978
-0.06571205819794174
-0.06145348507092903
-0.05549886909180098
-0.0476493565850754
-0.03771394389854901
-0.02550947740328357
-0.01086065349362347
0.006399981412825996
0.02651818059929998
0.049578487346735
0.0745532443991597
0.10035564191590386
0.12595317856981714
0.15036766154731313
0.17267520654832516
0.1920062377863487
0.20754548798840275
0.21853193709249974
0.22425755905752906
0.22406737280941003
0.21737770738708193
0.20461123708003767
0.18707746023082736
0.16600934657290983
0.14253500485056309
0.11767768281884579
0.09235576724364024
0.06738278390160699
0.04346739758023093
0.02121341207777611
0.0011197702033286308
-0.01623825662528794
-0.03138403845825362
-0.048041137709006226
-0.06919574109970196
-0.09670285080038664
-0.13128644144093451
-0.17254594104211526
-0.21762730521068968
-0.24721937250531115
-0.24013958845429417
-0.18048645498089322
-0.0576395153606128
0.13374209935119818
0.3950591633643075
0.6902449512214462
0.9404708387460822
1.0868082434436166
1.0938268085241194
0.9496878224228565
0.6858310456061213
0.37863040579279333
0.08980360244278232
-0.14007734511081293
-0.2915860976612316
-0.36245018167011733
-0.3635096933162822
-0.32267978045512363
-0.2630250611445478
-0.20159683522861352
-0.14943308433762123
-0.11155847188801576
-0.08698416033050128
-0.07016494805430293
-0.05758486367671356
-0.047100209546691786
-0.037007873590190817
-0.02604532933577004
-0.01339164321666448
0.0013298532426479154
0.0180544030395866
0.03628299742921688
0.05587443279285283
0.07696131192682035
0.09939193240315881
0.12297175760222187
0.14746341671263818
0.17258670473135232
0.19801858246358187
0.2233931765228622
0.24830177933100067
0.2722928491181223
0.29488407803784744
0.31572572990542846
0.3343423181873137
0.35026689140730455
0.36311490624323933
0.3725847122429207
0.3784570671081936
0.3805949751229954
0.3789436871533454
0.3735307006473486
0.364465759635199
0.35194136295360245
0.3362129700460649
0.3174778152724398
0.296195912239035
0.2728629210460505
0.24795161097945323
0.22191186051101855
0.1951706572982862
0.1681320981846058
0.14117738919909087
0.11466484555666458
0.08892989165801451
0.06428506108963739
0.04102232658842305
0.019388769886389455
-0.0005572619754814377
-0.018806045578203198
-0.03536135949476443
-0.0502404842900959
-0.06347420252110024
-0.07510679873662526
-0.0851960594774877
-0.09381327327645254
-0.1010432306582505
-0.10698422413956343
-0.11174822680148044
-0.11546406112363766
-0.11827702447813042
-0.12034901251272491
-0.12180318342374057
-0.12252208490848412
-0.12234243009658916
-0.12109806026896565
-0.11861994485780056
-0.11473618144655917
-0.10927199576998145
-0.10204974171408818
-0.09288890131617221
-0.08160608476480997
-0.06801503039984667
-0.05192660471241537
-0.03314880157440001
-0.01110157393038715
0.013732037856274498
0.04003565769876653
0.06659878213236389
0.09231741183676972
0.11619426214362082
0.13733876303644413
0.15496705915069736
0.1684020353264093
0.1770752204614874
0.1805281019669336
0.17840919280508288
0.17047372059018065
0.15662995509776945
0.13777221509668594
0.11542302205966767
0.09093464255603138
0.06547078033918925
0.04000657634669115
0.015328608700179621
-0.007965107294564606
-0.029465119147666512
-0.04895053718511553
-0.06638903454880392
-0.08138189920600897
-0.09735290193437492
-0.11904136529112457
-0.14865441579346997
-0.1858567348461434
-0.22777055874144886
-0.26946375728913813
-0.29676307861655693
-0.28489925582650655
-0.21624391760581815
-0.08148917788340534
0.12035095600255828
0.3819176402479221
0.6718871567685539
0.9199535498333464
1.0647791697202253
1.0618651602270006
0.9033377122869636
0.640998410726805
0.335534072378847
0.048000429561601284
-0.17634562374874013
-0.3239898078239801
-0.3942417354878305
-0.39732684685639846
-0.35434979430852
-0.29108533017681015
-0.22601959533063853
-0.17120368765819263
-0.13222783794259343
-0.10822093030112176
-0.09234561864538385
-0.07991012892317292
-0.06906467197418956
-0.05821061946884688
-0.04626806876305062
-0.032675711973420736
-0.017390923731457522
-0.0006696925691497642
0.01762049184910451
0.03745830477609778
0.058759640951182315
0.08138981207671264
0.10516354681808326
0.12984499080368872
0.15514770662496577
0.18073467383634903
0.20621828895531646
0.23119443550881397
0.2553513102758582
0.2781391651493768
0.2990290411321195
0.3175596896907921
0.3333375727560943
0.3460368627226869
0.3553994424492189
0.3612349052583061
0.36342055493654685
0.36190140573451207
0.35669018236674915
0.3478559489103002
0.3354299775961208
0.319762796429401
0.3012894318813301
0.2804386705627713
0.2576330592242924
0.2332889047561315
0.20781627418823487
0.18161899469021506
0.15509465357139612
0.12863459828076698
0.10262393640702785
0.07744153567854459
0.05345880851693349
0.030942233239013305
0.009993595785534479
-0.009317453503447894
-0.02694359014877984
-0.0428598155322417
-0.057063456896517595
-0.06957424452673909
-0.08043454329500808
-0.08970912111587104
-0.09748507176478363
-0.10387181487812805
-0.10900113086824711
-0.11302922091135137
-0.11613805110985945
-0.11852332418860458
-0.12019614468597468
-0.1210830164920716
-0.12109673169180765
-0.12013637056490711
-0.11808730158590594
-0.11482118142415047
-0.11019595494380105
-0.10405585520382578
-0.09623140345800907
-0.08653940915494096
-0.07478296993803038
-0.060751471645488705
-0.044220588310349744
-0.02495115073162579
-0.0028933684040836315
0.02133117986531306
0.04693800243257967
0.0730976832729334
0.09893588198074964
0.12353333376960668
0.14592584947224144
0.16510431636524514
0.1800161190471621
0.1895679251271194
0.192908025302067
0.1901685399957528
0.18179126290115658
0.1683381420740287
0.15049127993290282
0.1290529332590744
0.10494551319663006
0.07921158525241162
0.05301386929605689
0.02763522975336937
0.00422804894340358
-0.016926196701221547
-0.036063698877814215
-0.05381937668696098
-0.07122687663249239
-0.08971857262151552
-0.1111255659643814
-0.13767768537471992
-0.1720034653696188
-0.2162781430751575
-0.25930521935701323
-0.28183535038889057
-0.2670172109818972
-0.2005741328970186
-0.07080706543322371
0.13264494840108512
0.4141486158169052
0.7056345039938451
0.9393736676120596
1.0675794574938002
1.0624075206031036
0.9159558000459317
0.6518252349611715
0.34480504519813593
0.0576268138417941
-0.1683289804867863
-0.312817152503371
-0.3767278102600136
-0.375010706993397
-0.3290835695054771
-0.26497405072596564
-0.20138344444945938
-0.14957684709819094
-0.11338315772211349
-0.08952892255390027
-0.07305126254799327
-0.060803402268965474
-0.0502905768782373
-0.03964789836051945
-0.027638326557099246
-0.013653197088149778
0.002286169461588868
0.01959989668107194
0.038351652754922326
0.05864952819216922
0.08039585313784021
0.10344243000309537
0.1275905334651921
0.15259091046750503
0.17814378021948077
0.20389883419670551
0.2294552361408599
0.2543657944514135
0.2782885238311593
0.3007289141790198
0.3211495905361271
0.33908667941375126
0.35414980879327074
0.3660221081262193
0.3744602104475449
0.3792942587154905
0.3804278994717157
0.37783828072801867
0.3715760290692713
0.3617276473107229
0.34837621758663395
0.3319435853195759
0.31288370019413736
0.2916403490364436
0.2686471558141464
0.24432758163646504
0.2190949247541258
0.19335232055940138
0.16749274158608965
0.14189899750956092
0.11694373514668617
0.09298943845588598
0.07038535326267888
0.04935506265954655
0.029960322754663215
0.012235160826514081
-0.003804721884118836
-0.01816195017412905
-0.03085747487812815
-0.041930572868416796
-0.051438847054996024
-0.059458226385551045
-0.06608296584547624
-0.07142564595989247
-0.07561678116683276
-0.07880411663495263
-0.08115353380670766
-0.08288990425673222
-0.08409895200935517
-0.0845971355643787
-0.084198319760295
-0.08272098564465633
-0.07998823047407468
-0.07582776771422678
-0.07007192703984688
-0.06255765433473129
-0.05312651169173267
-0.04162467741277741
-0.02790294600884098
-0.011816728199963458
0.006773949084763051
0.02800468613987287
0.0518300360160504
0.07741911069784739
0.10375037805727697
0.1298154265332942
0.15461896827700342
0.1771788360064741
0.19652598195838317
0.21170436872016035
0.2217704482870533
0.2258069747026582
0.22351457565298502
0.21542111799136637
0.2021929347275873
0.18458955026067117
0.16346368037887044
0.1397612322597056
0.11452130446990837
0.08887618696545783
0.06405136109156172
0.041103111838672574
0.020393448650035978
0.001858012493391591
-0.015095301889187637
-0.031587549352453996
-0.04926873434802941
-0.07031781092437553
-0.09744268272681447
-0.1339836057935774
-0.18065306112236723
-0.22086235036773536
-0.23617772414346086
-0.2106937567133606
-0.13103332549132812
0.01365263501863681
0.23335231563138545
0.5262143752871279
0.8142476844330423
1.0267414684179745
1.1178127401428863
1.0664063000607535
0.8762947361768186
0.5899202185804933
0.2847472956346934
0.016415638862531477
-0.18047757588418373
-0.29233751292609766
-0.3265716767564474
-0.30352926037674044
-0.2465258152363777
-0.18004361038731764
-0.12047935392926112
-0.07610714286784528
-0.04707846311447922
-0.02764573900999068
-0.013896490290002287
-0.002850639309309692
0.007737918232783443
0.019376190466160247
0.03283216621712798
0.048134840226068655
0.06480873850533866
0.08306340410128604
0.10292489682327613
0.12431493526482239
0.14710002071810624
0.17109143717394312
0.1960452513218012
0.2216623125497576
0.24758825294456394
0.2734271769100164
0.29886491317803754
0.3233617774120942
0.3463601440391254
0.36736223787961464
0.3859301341476087
0.4016857584506861
0.4143108867900063
0.42354714556027684
0.42919601154976206
0.43111881194027507
0.4292367243071944
0.42341674450909883
0.4137278757859054
0.40058953955317833
0.38442176554303376
0.365641487640008
0.3446625382785222
0.3218956484429219
0.29774844766741954
0.27262546403613236
0.24692812418307272
0.22105475329213653
0.1954005750971495
0.17035771188179877
0.14631518447967706
0.12365862555747154
0.10267066293560524
0.08339645392467623
0.06583844414293881
0.04998682363724972
0.035819526883094754
0.023302232784547506
0.012388364674297212
0.0030190903136383986
-0.004876678107513623
-0.0113822280264737
-0.016592878675247898
-0.020616148913060746
-0.02357197140059158
-0.025593366818305135
-0.026825884206693237
-0.027423853879534953
-0.02739586679985176
-0.02655298868524307
-0.024694157106951317
-0.02161851124973222
-0.017125391911860792
-0.011014341505123235
-0.0030851040548218233
0.006862374800230851
0.019027947807693926
0.0336112661017241
0.0508117792029593
0.07090593299704506
0.09412752957493037
0.11947429228323554
0.1458300105080357
0.17213500284020536
0.19738611707537007
0.22063673021397823
0.24099674846125332
0.25763260722721254
0.2697672711266384
0.27668034596067564
0.277709268520784
0.27227024183380066
0.260618936063479
0.24398432120736935
0.223582208521549
0.20054960584492829
0.17594471759929303
0.15074694478924208
0.12585688500222839
0.1020963324085379
0.0802082777613329
0.06093812617214411
0.04469320507720274
0.029152753173067522
0.011825548693448491
-0.00944504278034354
-0.036481068319370404
-0.07076998764709096
-0.11395076256475002
-0.1588741044954684
-0.18225446761405392
-0.16440191056610712
-0.09090950125953973
0.04734640384946323
0.25420639927226013
0.5267597312035535
0.8164979732059928
1.0474458057355793
1.1627969924253496
1.1263254733415207
0.933442827235441
0.6497811767745105
0.3475500464956309
0.08050691980896174
-0.11601895260051077
-0.22760095471840724
-0.2651226824370365
-0.2461505836610297
-0.19090398962167082
-0.12225511487683498
-0.06281168692486354
-0.018497063928500694
0.012079447960894232
0.03176904479765049
0.04492435471542964
0.0564673920426718
0.0680279371493327
0.08036104968843967
0.09401130031595625
0.10928922760687344
0.1262721849785293
0.14484474785459092
0.1649928489061479
0.18663902248170497
0.20963762304941255
0.23379177476210183
0.2588533714572478
0.2845230766569891
0.31045032356808316
0.3362333150819737
0.3614190237747463
0.38554104049334936
0.4082604478096968
0.42900784394129854
0.4472503243387095
0.462542845958442
0.47452822726293953
0.48293714822061856
0.48758815030583874
0.48838763649891015
0.4853298712860949
0.47849698065960694
0.46805895211761145
0.4542737252188934
0.43734417320583086
0.41759898287380115
0.395596964120034
0.3718652986961364
0.3468991031348781
0.3211614288187735
0.2950832619801232
0.26906352370099235
0.24346906991325692
0.21863469139853411
0.19486311378822913
0.1724249975635228
0.15156056630212061
0.13250048367205156
0.1152600403473775
0.09977730827606576
0.08598638668410971
0.07381740207555157
0.0631965082324471
0.05404588621488996
0.046283744361002174
0.03982431828694751
0.03457787088691065
0.030450692333111803
0.027345100075801362
0.025159438843265252
0.02378818886706438
0.023122986856982258
0.02309671760810187
0.02387526111438577
0.025696067072300127
0.028792099653727216
0.033391829348754884
0.039719232965666575
0.04799379363095496
0.0584305007893137
0.07123985020364564
0.08662784395503853
0.1048052234511598
0.1260038600088767
0.14960585557899242
0.17472563813553824
0.20045783118926166
0.22587725378758394
0.2500389205146211
0.27197804149114085
0.29071002237462806
0.30523046435924067
0.31451516417582376
0.31748833127362086
0.3135820022648908
0.3037049160278451
0.2889007143980575
0.2701798055833175
0.24852122701740054
0.22487275033698312
0.20015088138162607
0.1752408601938191
0.15099666101891462
0.1282409923051712
0.10776529670373419
0.09005343692125928
0.07410723049123691
0.05815801222871769
0.039791713625176625
0.015936530700349207
-0.017001012808633482
-0.05833848492679501
-0.09984143569914736
-0.12881969878987545
-0.12830717218205626
-0.07800040393821932
0.03777575936316229
0.230337853167601
0.48880825409080686
0.7770375401640044
1.0336240095911158
1.1836205766214578
1.1829243803523155
1.0288541344605417
0.759154441136852
0.4500125981956917
0.16938773533941207
-0.04739039255678978
-0.18265949225791245
-0.23721989147680606
-0.2276746027789519
-0.17728896215039744
-0.11220874332074439
-0.05079569241862378
-0.0030887276470530894
0.029176203239892534
0.05027712085850585
0.06446554027227211
0.07511237771223676
0.08480810218197726
0.09536273545761974
0.1078058520878194
0.1223865793937884
0.13857461231245247
0.1560679966366826
0.17519423830550357
0.19588604814585772
0.21801834528157696
0.24140952863812884
0.2658219672203398
0.29096200012493306
0.3164799365404881
0.3419857492959845
0.3671973302087234
0.3915584030890183
0.41448122144126986
0.43544336101549164
0.45398771980727637
0.4697225180578495
0.4823212982540327
0.49152292512825607
0.4971315856585434
0.49901678906853697
0.4971133668274796
0.4914207620776166
0.4818484901467209
0.46863968346324386
0.4522672825074229
0.4331930473764205
0.4118675577843586
0.38873021306226796
0.3642092998792107
0.33872256086133445
0.3126769069095539
0.2864680721129133
0.26048061017740065
0.23508789442592737
0.21065211779837206
0.18752429285151268
0.1660186438495442
0.14624108930972846
0.1282000257877726
0.11188945071537887
0.09728869126002375
0.08436240432498869
0.07306057654934882
0.06331852430799058
0.055056893711583364
0.04818166060659887
0.04258413057530444
0.03814093893577176
0.03471405074186264
0.03215076078323909
0.030273920238393606
0.029014011776842798
0.02851839559428263
0.028951455279944895
0.030482386244586757
0.03328542214456753
0.037539939301410696
0.04343045809877351
0.05114664298245136
0.060883302460363234
0.07284038910257223
0.08722299954127231
0.10424137447080022
0.12412092895604548
0.14677278498990595
0.17137369819653564
0.19700653884033076
0.22273231096080592
0.2475901523726618
0.27059733466574143
0.29074926320504696
0.30701947713070793
0.31835964935803374
0.323700178999734
0.32247107957004156
0.3151924765123998
0.3025765317471403
0.2854103668520873
0.26455606137158344
0.24095043364823374
0.21560482370881248
0.18960547963342267
0.1641136091596495
0.140371073275032
0.11934600404717403
0.10063991996484889
0.08330352857032547
0.06604756384948009
0.04724278623175034
0.024919982590166746
-0.003230033758670565
-0.03985642305453806
-0.08776545446811321
-0.13004715822325075
-0.14342260568396836
-0.11009991158578938
-0.017777012087496158
0.14035833522891736
0.3656285513583458
0.6486696878534319
0.9277530348606791
1.1286757813065977
1.19870242536344
1.1075467338614755
