ppg
-0.0625482021484134
-0.043742340744940954
-0.025131480647523158
-0.006847963731669756
0.01100297624251808
0.02835341663488557
0.045179296657380005
0.06150267460251904
0.07738947061492243
0.0929429159591563
0.10829335001519537
0.12358536374267555
0.13896354810123282
0.1545582424708418
0.17047267811606864
0.18677277518153312
0.20348059195975293
0.22057206766267531
0.23797927965014545
0.25559699416206233
0.27329286932291597
0.2909203116775356
0.30833272777075016
0.32539777572704986
0.3420102217863337
0.35810214330844675
0.37364947950533633
0.3886742886695201
0.40324249094561787
0.4174573175981957
0.43144910800722824
0.4453624531323516
0.4593419439332015
0.47351791978975283
0.4879936119665718
0.5028349406082778
0.5180639640073885
0.5336566213758516
0.5495449900735122
0.5656238363402689
0.581760818300612
0.5978093424993709
0.6136228154813741
0.6290688953711121
0.6440423484084838
0.6584752519533343
0.672343545217611
0.6856692864938315
0.6985183959266156
0.7109941047805293
0.7232267524355473
0.7353609298513056
0.7475412279874403
0.7598979862239259
0.7725344358253285
0.7855164969362681
0.7988662278492621
0.8125595677762578
0.8265285940771006
0.840668072991689
0.8548456626445137
0.8689147695804036
0.8827288003441874
0.896155413060356
0.9090893739688073
0.9214627604293871
0.9332515116540429
0.9444776859352919
0.9552072034177543
0.9655432953659958
0.9756163011599912
0.9855708117593769
0.9955514181237879
1.0056884596331999
1.0160851675521785
1.0268074620253431
1.0378774013452123
1.0492709247237326
1.0609201095207494
1.0727197219761617
1.0845374202144598
1.0962266107804723
1.1076407002190292
1.1186473466546196
1.1291413163271427
1.1390546865964444
1.1483633966744708
1.1570895048537406
1.1652989312788729
1.1730949072144345
1.1806077720403994
1.1879821167164035
1.1953625322020833
1.2028793578774133
1.2106358250069595
1.2186978537353417
1.227087502355078
1.2357807100781149
1.2447095542642979
1.2537688011535257
1.2628261088702892
1.271734883959417
1.2803485329657378
1.2885347140137422
1.2961881933433295
1.3032410483143442
1.309669218138734
1.3154947611090158
1.3207835973698103
1.3256389581856836
1.3301911829366095
1.3345848625822248
1.3389645880821652
1.3434606988164055
1.3481764260495113
1.353177689926103
1.3584865487386975
1.364078941699243
1.3698869461675842
1.3758053283836196
1.3817017464718402
1.387429606977075
1.3928423164441528
1.3978075329975634
1.4022200228772057
1.406011863442926
1.4091589939066702
1.4116834725609568
1.4136512195504056
1.415165466139582
1.4163565517084615
1.4173690672166797
1.418347603623872
1.4194225003100145
1.420696988539672
1.4222369884574648
1.4240645583559106
1.4261556374469566
1.4284423030904476
1.4308193215262832
1.433154350878953
1.4353007976932863
1.437112068514112
1.4384558214659209
1.4392268227886111
1.4393571498420288
1.4388651203153913
1.4378165828474048
1.4362795753860642
1.4343594469993095
1.4321886548704912
1.4299139077626195
1.4276819144387052
1.4256251320820976
1.4238489097607383
1.422421285422621
1.421366435163639
1.420662415999114
1.4202434230922656
1.4200063404863683
1.4198209441092864
1.419542758309224
1.4190273074343855
1.418144367412635
1.416790822287247
1.4149008672214407
1.4124525592305388
1.4094700744104336
1.40602145070912
1.4022120371945377
1.3981742910500379
1.39405492103863
1.3900006359233255
1.3861438928874734
1.3825900409990153
1.379407118205945
1.3766193006041556
1.3742046452089687
1.3720973471836044
1.3701942905713367
1.3683652513000306
1.3664657537178895
1.3643513221731178
1.3618917325935795
1.35898386902255
1.355561926623248
1.3516039624109955
1.3471341524816858
1.3422205347833132
1.336968458383818
1.3315103804665502
1.325993009794521
1.3205630551307401
1.3153529736585583
1.3104681144459152
1.305976515440806
1.3019023527391234
1.298223683356189
1.294874702455223
1.2917522940794994
1.2887262341568826
1.285652047035577
1.2823852570637864
1.278795640169375
1.2747800803956175
1.270272772905734
1.2652517747150454
1.259741261919445
1.2538092724669276
1.2475611554254338
1.2411293679783129
1.2346606188885756
1.2283016169192331
1.2221848192536349
1.2164155749597214
1.2110619219854877
1.206148036426826
1.2016519752990584
1.1975079337654047
1.1936127958691392
1.1898363375381262
1.1860340831205705
1.1820615569646744
1.1777885349983044
1.1731119012647335
1.1679658509271822
1.1623284410009718
1.1562238475819955
1.1497201086182476
1.1429225731776687
1.1359636984436088
1.1289901931790784
1.1221487661470884
1.115571874530988
1.1093648673987186
1.1035957826982739
1.0982887965255477
1.0934219658958608
1.0889294859724339
1.0847082407985407
1.0806280063020457
1.076544306831153
1.0723126667340672
1.0678028619386521
1.0629117764881824
1.0575736055458773
1.0517664061270593
1.0455143543276209
1.038885488095557
1.0319851564988072
1.0249458167207226
1.0179141775243128
1.0110369476725893
1.0044465843489012
0.9982484366211896
0.992510542437449
0.9872570778935718
0.98246610000488
0.9780718039345941
0.9739710737259871
0.9700336853069247
0.96611516302561
0.9620710312302476
0.9577710658487021
0.9531121509242472
0.9480284816201028
0.9424981149515915
0.9365452270146051
0.9302378557571388
0.9236813502471332
0.9170081676679376
0.9103650167825631
0.9038986063540201
0.8977413935656585
0.8919987274854189
0.8867386460612963
0.8819853253891826
0.8777168224844004
0.8738673325101692
0.870333739509763
0.8669858194110468
0.8636790965622245
0.8602690953114999
0.856625591586738
0.8526454694312122
0.848262924008143
0.8434560123328522
0.8382489105012322
0.8327096564612777
0.82694359928093
0.8210831961435379
0.8152751558121127
0.8096661870496646
0.8043887470395439
0.7995481848496905
0.7952125384280998
0.7914059838706639
0.7881065781927051
0.7852485165574432
0.7827286830081518
0.7804168534726964
0.7781685522992803
0.7758393038361076
0.7732988840110433
0.7704441768673611
0.7672093775682811
0.7635725431291249
0.7595578496457858
0.7552333350662577
0.7507043484584818
0.7461033470058077
0.7415770394712455
0.737272134617807
0.7333210896288407
0.729829253572288
0.7268646643961437
0.7244514981962997
0.7225678119880786
0.7211478009347002
0.7200883490794376
0.719259232350157
0.7185159750950614
0.7177141016623552
0.7167233879799026
0.7154407180909783
0.7138002871588013
0.7117801521986946
0.7094044893065498
0.7067413364303623
0.7038960426380726
0.7010010651130303
0.698203112618246
0.6956488939167306
0.6934708661918331
0.6917743785114954
0.6906274688237112
0.6900543132243735
0.6900329687288042
0.6904976305002233
0.6913451825819042
0.6924454009017126
0.6936538098078517
0.694825933648526
0.6958315483515994
0.6965675379603469
0.6969680976379876
0.6970053906562406
0.6966936752164112
0.6960949530400178
0.6953085369685251
0.6944608479588062
0.6936925585473964
0.6931443412708299
0.69294261708598
0.6931866988343115
0.6939385882373432
0.6952164251644912
0.6969922304046016
0.699194162894418
0.7017130704507383
0.7044126927749512
0.7071425179887845
0.7097520342139659
0.7121049811518844
0.7140922066193374
0.7156418695530689
0.7167259907419248
0.7173627100553215
0.7176140292147773
0.7175792610617573
0.7173848265531346
0.717171398225444
0.7170796486152201
0.7172359986793361
0.7177397612592573
0.7186529380765017
0.7199936690004853
0.721733974820055
0.7238020144719542
0.7260886357729804
0.7284575784245224
0.7307583305483084
0.7328403802660657
0.7345674672791832
0.7358304394044588
0.736557455578636
0.7367205365905609
0.7363378223096502
0.7355110272152439
0.7343825281694331
0.7330837730232964
0.731760461207574
0.7305582921530059
0.7296087137106714
0.7290160656162403
0.7288473764854371
0.7291258130818831
0.7298284230886302
0.7308883923366276
0.7322015955368781
0.7336367992849766
0.7350485185968564
0.7362912684884502
0.7372338155553528
0.7377720345085671
0.7378391111790423
0.7374120932498305
0.7365141474845529
0.7352123024989339
0.7336108980286437
0.7318413819247609
0.7300494536180262
0.728380812539179
0.7269669065392987
0.7259120753540558
0.7252833475991739
0.7251038900382747
0.7253507503544098
0.725957114378529
0.7268188568216347
0.727804744279322
0.7287692917675235
0.7295670143021731
0.7300666784788644
0.7301641590086012
0.7297926417223324
0.7289291743031099
0.7275969235145552
0.7258629179723924
0.7238314974122919
0.7216341096853325
0.7194164542222541
0.7173242304537973
0.7154888862310403
0.7140147612896544
0.7129688842453628
0.7123744218617875
0.71220842182198
0.7124040699568901
0.71285724097752
0.7134367014794649
0.7139969664786577
0.7143925509910318
0.7144922216121814
0.7141918530531095
0.7134246311447658
0.7121676035702017
0.7104439370930389
0.7083206603290017
0.7059021130137596
0.7033197429983925
0.70071924971364
0.6982463325902422
0.6960324394792781
0.694181910116418
0.6927617731173861
0.6917951952458037
0.6912592241847227
0.6910870457650927
0.6911745346979161
0.6913904575787878
0.6915893294236408
0.6916256652484086
0.6913682316486853
0.6907129033354742
0.6895928661397246
0.6879851677444881
0.6859129749133863
0.6834433162621433
0.6806805315264293
0.6777560685573235
0.6748156267855657
0.6720049056418962
0.6694553529773939
0.6672713085277291
0.6655198009086258
0.6642239968837058
0.6633609441360203
0.6628638284965191
0.6626285246762049
0.6625237992706724
0.6624041672958548
0.6621241437676855
0.6615524952817584
0.6605850965490772
0.6591551334005907
0.6572396535193509
0.6548618236689793
0.6520886724651997
0.649024539643683
0.6458008730555074
0.6425633721314137
0.6394577363021416
0.6366154134187701
0.6341407432169696
0.632100754312464
0.6305186134688749
0.6293713683692543
0.628592204844551
0.6280769976057686
0.6276945132485012
0.6272992667886821
0.6267457732422447
0.6259027992047832
0.6246662193873006
0.6229692196207466
0.6207888475881722
0.6181482700531998
0.615114515631553
0.6117919240589024
0.6083119431863264
0.6048202724445658
0.6014626112643602
0.5983704074967887
0.5956480008775216
0.5933624200222827
0.591536831694694
0.590148283577807
0.5891299615025711
0.5883777401799895
0.5877603862056561
0.5871324145955046
0.5863483403654682
0.585276930111141
0.5838140585435265
0.5818929114935736
0.5794905366443343
0.5766301007594301
0.5733786324545852
0.5698404714654697
0.5661470656431626
0.562444114418404
0.558877317221934
0.5555781219048315
0.5526508682027669
0.550162584731464
0.5481364382545447
0.5465494764550607
0.545334885163961
0.5443885390922488
0.5435792048355191
0.5427613974097042
0.5417896318307379
0.5405326746942145
0.5388864007111368
0.5367839957124545
0.5342025073812191
0.5311651024810523
0.5277388096276784
0.5240279685567673
0.5201640271193979
0.5162926847463104
0.5125596408682451
0.5090963433362808
0.5060071318860877
0.50335903513339
0.5011752198418093
0.49943273369439717
0.49806476252210297
0.4969671810359299
0.4960087558314722
0.49504400192466314
0.49392743433143615
0.4925278196473853
0.49074103258351387
0.48850025897077126
0.48578254649220876
0.48261106191144876
0.4790528338442146
0.47521220202617676
0.47122061430841433
0.4672237701216672
0.4633673688966758
0.4597828584845186
0.4565745786208663
0.45380955792144273
0.4515109631498696
0.44965584198919856
0.44817738027037896
0.44697145270441374
0.4459068258868975
0.44483801483376334
0.44361953456094455
0.4421201516640357
0.4402357408540395
0.4378994879619056
0.43508844067068564
0.43182576574400094
0.428178491797576
0.4242509585670807
0.4201746139035943
0.41609515723785656
0.41215828800060805
0.4084954540429273
0.40521099510048475
0.40237193978900443
0.400001454872108
0.398076588032847
0.396530525102171
0.39525914079108293
0.39413120169517735
0.3930012228303871
0.39172371921264576
0.39016745743754777
0.3882283122160961
0.38583946937923996
0.38297797661003113
0.3796670006720912
0.3759735701811443
0.37200202487286077
0.3678838125983194
0.36376463278826043
0.3597901848734237
0.3560919167048885
0.35277416801832495
0.3499039674294569
0.3475044817019063
0.34555275851872475
0.34398198371086147
0.3426880319893195
0.3415396699496935
0.34039141260791633
0.3390977749799218
0.33752752366130373
0.3355765333630654
0.3331779899161562
0.33030894100362773
0.32699255338910166
0.32329585568830205
0.31932318763689926
0.31520599708597213
0.31108998346626066
0.3071208462085051
0.3034300331637845
0.3001218840677689
0.2972634275361824
0.29487783033264675
0.2929421401402134
0.2913895427898321
0.29011591299250544
0.2889900173438281
0.28786637085973343
0.28659948855615425
0.28505813702868543
0.2831381909883296
0.2807728362660365
0.2779391205448574
0.27466021058841433
0.2710031350124312
0.26707223355257814
0.2629989540599343
0.2589289959652397
0.2550080586992344
0.25136759011299736
0.2481119299421988
0.2453081068025629
0.2429792874577113
0.24110251959069554
0.23961098903246514
0.238400570494023
0.23734003057096348
0.23628388427921998
0.2350866466347256
0.2336170842330749
0.23177107178527082
0.22948179512226285
0.22672630192710233
0.22352775896341126
0.21995319484691356
0.21610694931327967
0.21212047021358815
0.20813945697857947
0.2043096090389932
0.20076237424590915
0.1976020923349968
0.19489579192198056
0.192666639770482
0.19089168356355288
0.1895041091321425
0.18839979118725395
0.1874474963244814
0.18650173955975827
0.18541703590901776
0.1840621519678544
0.1823329624472711
0.18016265317821728
0.17752827184374462
0.1744529852074747
0.17100382188513163
0.16728512161238576
0.16342833224031564
0.15957915319966173
0.15588328392116418
0.15247217225590173
0.14945015793954491
0.14688426958781733
0.14479767396434132
0.14316741875216785
0.1419266897822465
0.1409713617655805
0.14017020129776392
0.13937772339473048
0.138448443072413
0.13725112692640593
0.13568164966771248
0.13367319712728196
0.13120281698816616
0.12829367601398656
0.12501280282046717
0.1214645371432785
0.1177803268334989
0.11410587132186932
0.11058687003912929
0.10735477083635767
0.1045139134492253
0.10213132649345577
0.10023017673267065
0.09878751184992214
0.09773651767615897
0.09697306892238458
0.09636593218419338
0.09576962247751857
0.09503865481829304
0.09404179580211147
0.09267492013997705
0.09087121366283929
0.08860772405374921
0.08590761807632885
0.08283792434630234
0.07950298259933977
0.07603424068651987
0.07257739803858343
0.06927815408627014
0.06626795668065862
0.06365114555741991
0.06149474933227707
0.05982193476885267
0.05860974955019812
0.057791379507262146
0.057262699351048864
0.05689247567715159
0.05653522350150433
0.05604545784004021
0.0552919452883536
0.054170560557447164
0.052614489478270646
0.05060077973387568
0.04815259808788383
0.04533697315601904
0.04225824467395179
0.039047860492761155
0.035851520043186834
0.032814922755969256
0.030069516482187038
0.027719640957510665
0.02583232479766419
0.02443073476626926
0.023491918546377544
0.022949061968938318
0.0226980397449546
0.022607618470020976
0.022532313160070417
0.022326638831036687
0.021859362078513564
0.02102635761350434
0.019760811266958587
0.018039770721927535
0.015886402742033276
0.013367735942999543
0.010588110060496935
0.007678972945604298
0.004786024029061121
0.0020549627416084734
-0.0003827630656755483
-0.0024228136571201675
-0.003998160417001509
-0.005085636581697629
-0.0057081944681571795
-0.005932648245431005
-0.005863123202515535
-0.005630852743816806
-0.00538132185340112
-0.0052600155153356
-0.005398167134025987
-0.005899901998468809
-0.006832034277714687
-0.00821751628871296
-0.010033181267840521
-0.012212000599373746
-0.014649634547642943
-0.017214635261568818
-0.019761303310411312
-0.022143939263430456
-0.024231095269546855
-0.025918431593090388
-0.027138919618337632
-0.027869392581666166
-0.02813280280002422
-0.02799596444246331
-0.02756300279797943
-0.026965151270979267
-0.026347894845528682
-0.02585671850569481
-0.025622855655883146
-0.025750431585090897
-0.02630626046236802
-0.02731329460466339
-0.028748367248355267
-0.03054444977771945
-0.03259720245708614
-0.0347751774353759
-0.03693267528184839
-0.03892399656576451
-0.04061769343604441
-0.04190942615701819
-0.04273216611296199
-0.043062746540253174
-0.0429241197558416
-0.04238309992877667
-0.04154381234805592
-0.04053749041808468
-0.03950961912293009
-0.038605683446658635
-0.03795691679367608
-0.03766744445297886
-0.03780408059361812
-0.03838977753254189
-0.03940136850612918
-0.0407718248986555
-0.04239680697445012
-0.04414486688243424
-0.04587030519186862
-0.04742742247201239
-0.0486847708717864
-0.04953801065552118
-0.049920113207492525
-0.049807911764077985
-0.04922435864222675
-0.048236268010989354
-0.046947765159362
-0.04549008349175112
-0.0440087079922232
-0.04264912364484516
-0.04154256385402203
-0.04079315390875134
-0.04046770797808359
-0.040589178378966924
-0.0411343983477798
-0.042036339268798524
-0.04319066140635252
-0.04446591690936263
-0.04550694469452926
-0.045962752034867056
-0.04570814361376884
-0.04464503223003555
-0.042712641802415074
-0.03989405810175715
-0.03621848597948174
-0.0317589921391113
-0.02662595440411429
-0.020956858713367846
-0.014903442585410384
-0.00861744353877999
-0.0022363475123543457
0.004129467670398247
0.010406935305955605
0.016566850542897534
0.022626127610374355
0.0286455425896384
0.03472318268188837
0.040984243203731306
0.047568171051436216
0.05461441312127136
0.062248164729844034
0.0705675130783529
0.07963323424805036
0.0894622424680867
0.10002533288704168
0.11124943880139324
0.12302418238767289
0.1352120777070031
0.14766138724084574
0.16022037347066242
0.17275155045757593
0.18514454037811787
0.19732627652876583
0.20926755405809974
0.22098528719526983
0.23254025202152842
0.2440305357380744
0.25558133366151503
0.2673320926881187
0.2794222597141539
0.291977030056228
0.3050944909155397
0.31883541837334145
0.33321672665878327
0.3482092109204454
0.3637398044548052
0.37969812943839437
0.3959466999323355
0.4123337784180905
0.42870762737712126
0.4449307608705497
0.46089280107490804
0.4765206812866738
0.4917851966544269
0.5067032614073175
0.5213356516265981
0.5357804545134675
0.5501628653845327
0.5646223311360621
0.5792982986643247
0.5943159632859275
0.6097734122020695
0.6257314214940026
0.6422069053908772
0.6591706590412734
0.6765496157416686
0.6942333976685946
0.7120845188831745
0.729951241866869
0.7476818291011404
0.7651387946471113
0.7822117606813132
0.798827660500224
0.8149572892524235
0.8306175611670621
0.8458692523253919
0.8608104499286116
0.8755663492933287
0.8902763973158114
0.9050800408923286
0.9201024753394872
0.9354417878584863
0.9511587545305782
0.9672702895849129
0.9837471881700706
1.0005163835825284
1.0174674979988185
1.0344630454800636
1.0513512885077252
1.0679804895632647
1.0842131627078053
1.099938930117878
1.1150847250899616
1.1296213427726345
1.1435656973950479
1.1569785650384534
1.1699580329040509
1.182629296308447
1.1951318021479103
1.2076049973187093
1.2201740771374512
1.2329371288053352
1.2459549284036127
1.2592443901614345
1.272776309227381
1.286477618897929
1.3002379413496106
1.313919790643548
1.3273714292612033
1.3404411196840382
1.3529913759731755
1.3649118203051465
1.3761293859764294
1.3866148681356034
1.396385181011819
1.4055011006863287
1.4140607143603312
1.4221892173504334
1.4300260565529042
1.4377106788640122
1.445368279600365
1.4530969459631597
1.4609574540336503
1.468966718040987
1.477095533133749
1.485270832608414
1.493382238641514
1.501292265294172
1.5088491750478488
1.5159012303840063
1.522310945363768
1.5279679421636643
1.5327991540801733
1.5367753762618752
1.5399135229379206
1.5422743701895614
1.5439560052179948
1.5450836233398317
1.5457966714513371
1.5462345964487814
1.5465225936487714
1.5467587502525049
1.5470038423412362
1.5474386727696479
1.5482027937141742
1.549230441074776
1.5504185396314665
1.5516369060488506
1.552741105411873
1.5535867028054762
1.554043514894267
1.5540084664582579
1.5534157933974098
1.5522435934637835
1.5505160834900127
1.5483013421608316
1.5457047592809212
1.5428588327703716
1.5399103121289324
1.537005946856355
1.5342782348727293
1.5318325659827359
1.5297370188711092
1.5280158103704824
1.526647038232917
1.5255649383583727
1.5246664355268642
1.5238213464029957
1.522885236071712
1.5217136696179558
1.5201764637063335
1.518170543116858
1.5156301437494892
1.5125333633562894
1.508904418769892
1.5048113886750303
1.500359662876386
1.4956817392940476
1.490924367427768
1.486234296777296
1.481744025262722
1.4775589426887266
1.4737471277400447
1.4703327972493092
1.4672940489685813
1.4645651187978217
1.4620429315170436
1.459597303790853
1.4570838007041929
1.4543579873420072
1.4512896803689015
1.447775804564889
1.4437505958299304
1.439192151916087
1.434124689655992
1.4286162877343793
1.422772335955931
1.4167253322407356
1.410622026088544
1.4046091669991074
1.3988192528925152
1.3933576735734483
1.3882925077266413
1.3836479721847266
1.3794021646997665
1.3754893211717214
1.371806366380604
1.3682231169910202
1.3645951380879138
1.3607779947562286
1.356641503660569
1.35208258958095
1.3470354884173312
1.341478297921774
1.3354352349269116
1.3289743781174783
1.3222011172981551
1.3152479503890318
1.3082616268898593
1.3013888963003877
1.294762256540707
1.288487097415498
1.2826314976094957
1.277219673955332
1.27222972420507
1.2675958842586683
1.2632150788961416
1.2589571247820954
1.2546775870014726
1.2502320306392172
1.2454902723599341
1.2403492369436386
1.234743160290289
1.2286501401519478
1.2220943933612478
1.2151439986029233
1.207904345681656
1.2005079325175352
1.1931015086103105
1.185831823459734
1.1788313749858954
1.1722055529934747
1.1660224361672065
1.160306241339724
1.155035066263089
1.1501431468372616
1.1455274078422557
1.1410576659426759
1.1365894862234664
1.1319784337695713
1.1270943252455952
1.121834085431552
1.1161319502274019
1.1099660173852066
1.1033605037375995
1.096383487969314
1.089140359885032
1.0817636174048426
1.074400010028497
1.0671962872557452
1.0602849470066777
1.0537713790859746
1.0477236621783712
1.0421660131164998
1.037076529652422
1.0323894476860986
1.0280016919975432
1.0237830792513603
1.0195891745324939
1.0152755429258886
1.010712001096149
1.0057954738232888
1.0004601970072677
0.9946842684001486
0.9884919048345636
0.9819511849952468
0.9751674986868802
0.9682733438295527
0.9614154699230153
0.9547406264670182
0.9483813113816522
0.9424429144715971
0.9369935144215881
0.9320573280642572
0.9276124531516667
0.9235931255837774
0.9198962701406019
0.916391703486746
0.912934990707153
0.9093816968867674
0.9056016386901938
0.9014917408974463
0.8969862394084847
0.8920632319753712
0.8867469354307383
0.8811054284593205
0.875244100865799
0.8692954505702629
0.8634062270724641
0.857723179872152
0.8523788068894167
0.8474784979289396
0.8430903316754544
0.8392385249615943
0.8359011755394212
0.833012519308895
0.83046948105003
0.8281418774274306
0.8258852735260408
0.8235552344308048
0.8210215768063278
0.8181812254326226
0.8149684162096501
0.8113612468894725
0.8073839343047218
0.8031045571401328
0.7986285052003862
0.794088276405572
0.7896306202554407
0.7854022862497436
0.7815357723085691
0.7781364682365993
0.7752724527185686
0.7729679425871089
0.7712010355942829
0.7699059676400507
0.7689796635044253
0.7682919398520127
0.7676983617677557
0.7670544943365994
0.766230154223148
0.7651222662074157
0.7636650661893623
0.7618366519210501
0.7596612402351112
0.757206909816281
0.7545790504692391
0.7519101601140769
0.7493469882505437
0.7470362843783906
0.7451105464177078
0.7436751641731754
0.7427982163295285
0.7425039197193989
0.7427703720948501
0.7435318093558408
0.7446851562823861
0.7461002295390898
0.7476325942108959
0.7491378153827488
0.7504857097192537
0.7515609723979146
0.7522816148195027
0.752619742391059
0.7525935796001947
0.7522652127866245
0.7517340394100076
0.7511265650454131
0.7505835468475704
0.7502457419712103
0.7502396559914006
0.7506646863678019
0.7515829194401276
0.7530125796959897
0.7549257725424289
0.757250741534385
0.7598784191068503
0.7626726295794092
0.7654829456919849
0.7681589401844998
0.7705644373765391
0.7725903697030946
0.7741649807191059
0.7752603758316144
0.7758947795282315
0.776130278148671
0.7760662691525928
0.7758292581150662
0.7755600021908202
0.7753992585345854
0.7754735327214298
0.7758822222110145
0.7766874133430522
0.7779073306051553
0.7795140794043641
0.7814359032956186
0.7835637347139117
0.785761397978827
0.7878784658302876
0.789764511008217
0.791283357832199
0.7923259387372261
0.7928621261866363
0.7929089234759961
0.7924894585631084
0.7916707212578794
0.7905570124901604
0.7892797413052117
0.787984568327955
0.7868171541833124
0.7859089079165431
0.7853641304574999
0.7852498116160874
0.7855890793501095
0.7863589425367989
0.7874925482012866
0.7888857322487567
0.7904072224689851
0.7919114950720871
0.7932530262681766
0.7943005438470302
0.7949498837138318
0.7951341928937126
0.7948304802639055
0.7940618737822135
0.7928953632585423
0.7914352496227433
0.7898129419200777
0.788174100775466
0.7866643868138306
0.7854152090804312
0.7845308685051202
0.7840783548978025
0.7840807962162816
0.7845152013377902
0.7853147172874595
0.7863751799704739
0.7875653171766087
0.7887396051159795
0.7897525199987009
0.7904727896145479
0.7907962498687057
0.7906560477863049
0.7900291922445785
0.7889388112013301
0.7874518944664644
0.7856727429698337
0.783732765756698
0.7817776234519797
0.779952976680599
0.7783902344878174
0.777193697803486
0.7764303564375108
0.7761233383476946
0.7762496524112703
0.7767424456533691
0.7774975539791751
0.7783837051784649
0.7792553754613523
0.7799670410379522
0.7803874296980408
0.7804123773468025
0.7799750310093679
0.7790523995629703
0.7776676109654125
0.7758876550266002
0.7738168326763856
0.7715865529600281
0.7693424765024499
0.7672302639285722
0.765381324283656
0.7638999584975524
0.7628531563801673
0.7622640458893034
0.7621096359021939
0.7623230734439702
0.7628001944198161
0.7634097266195075
0.7640061462531591
0.764443929530886
0.7645918042424639
0.7643456062930771
0.7636384827078564
0.7624474423640349
0.7607956132194161
0.758749985083905
0.7564148588873535
0.7539216436750218
0.7514160000718323
0.7490435887027053
0.7469358186129019
0.7451969907322739
0.7438940948707264
0.7430502589860629
0.7426424919555162
0.7426039408042171
0.7428304414373503
0.7431907216446915
0.7435392576363556
0.7437305256224569
0.7436332533927715
0.743143276852484
0.7421937430267251
0.7407616607927278
0.7388701581082951
0.7365862247833329
0.734014161747693
0.7312853780466348
0.7285455343050811
0.7259402911479524
0.7236010576205101
0.7216321346526051
0.7201005120541432
0.7190293177829274
0.718395560716191
0.7181323878790651
0.7181356351767333
0.718274030398972
0.7184020497558957
0.7183741694576196
0.7180591172939187
0.7173527291699782
0.7161881521109286
0.7145423949940031
0.7124385857770049
0.709943714269839
0.7071620814023579
0.7042250962198212
0.7012784193471514
0.6984677114092689
0.695924381451435
0.6937527304035008
0.6920197480753724
0.6907485624248524
0.6899161823291741
0.6894557548134681
0.6892631157829193
0.6892069930273035
0.6891418627567345
0.6889222011813282
0.6884167360908601
0.6875213033905143
0.6861690501054218
0.6843369851128158
0.6820482363704995
0.679369793688378
0.6764059579963039
0.673288138339536
0.6701619953429975
0.667173189631609
0.6644531302506315
0.6621061181299159
0.6601991430793684
0.658755333056792
0.6577516969394194
0.6571213817523819
0.6567602234008632
0.6565369496746403
0.656306036783827
0.6559219609385386
0.6552534499285502
0.6541963396590471
0.6526837771551596
0.6506927712941208
0.648246450033734
0.6454118031839049
0.6422931316744848
0.6390218445507344
0.6357436024375749
0.632604065959928
0.629734644163054
0.6272396379768052
0.6251860372110862
0.6235969698237008
0.6224494446918819
0.62167660884076
0.6211742981755202
0.6208112404859376
0.6204419119821276
0.6199207888742043
0.6191165989519442
0.6179251781205312
0.6162796734050963
0.6141570936828726
0.6115805669116633
0.6086170829013742
0.6053709425818559
0.6019735549983699
0.5985705807758372
0.5953076805391802
0.5923162633336577
0.589700630089123
0.5875277706154806
0.585820812870534
0.5845567657315164
0.5836687762235583
0.5830526802518442
0.5825772056061502
0.5820968284965912
0.5814660251332812
0.5805535233059964
0.5792551589199213
0.5775040790001869
0.575277292424026
0.5725979271492417
0.5695329729857399
0.5661867308633717
0.5626906098273983
0.5591902705027402
0.5558313735143199
0.5527453279073972
0.5500364346118244
0.5477716834375062
0.5459742023422463
0.5446210002032774
0.5436452240457309
0.5429427097747906
0.542382185180233
0.5418181264721721
0.5411050098607232
0.5401115631356618
0.5387336222021724
0.536904334085386
0.5346007076625356
0.5318458708914242
0.5287068135819577
0.5252878366639872
0.5217203491827737
0.518150011763238
0.5147224850303027
0.5115691780292272
0.5087943916898637
0.5064651158221177
0.5046044783837921
0.5031894882521201
0.5021532924522327
0.5013917268893139
0.5007735193531401
0.5001531460538258
0.49938508320148506
0.498338058585895
0.496907908112239
0.4950277788056485
0.49267467954335636
0.48987173828316566
0.486685944834982
0.48322160012865684
0.4796101132094513
0.4759971447022857
0.4725283552320828
0.4693351538441023
0.4665218414681962
0.46415540791426985
0.4622589811401265
0.46080957002299905
0.4597403215880181
0.45894707174036903
0.4582985482698264
0.4576492273865062
0.4568535853005223
0.4557803498016509
0.454325356795076
0.45242175330592915
0.4500465482114429
0.44722286946942047
0.44401770688976766
0.44053536140233573
0.4369072420523854
0.4332790094648377
0.42979632426461534
0.4265905954969774
0.4237661240917764
0.42138989985891756
0.4194850507562038
0.4180285856608687
0.4169536515980426
0.4161560844729102
0.4155046120752472
0.4148537106151687
0.4140578563027887
0.41298577692788396
0.4115333083956381
0.40963359773118246
0.4072636538117499
0.40444660459514364
0.4012494398912692
0.3977764606299779
0.39415907585653115
0.3905429461958493
0.38707373227285463
0.38388284313280696
0.381074579705559
0.3787159318010152
0.3768300273769792
0.37539387531068363
0.3743406226272601
0.37356610523189243
0.3729390509143566
0.3723139358847674
0.37154523635323966
0.370501680109549
0.3690791030588798
0.36721065222636334
0.36487333648923215
0.3620902838052899
0.3589284839844416
0.3554922379565392
0.35191295476684287
0.3483362950402748
0.3449079194017557
0.3417592368965466
0.33899454845449867
0.33668084388551783
0.33484125114740715
0.3334527791173995
0.3324485748206259
0.33172447416227036
0.3311492049321097
0.3305772433402579
0.3298630655968296
0.3288753994916007
0.32751008092975625
0.32570025693642635
0.3234229363888445
0.32070124724481375
0.3176021793142391
0.31423003352697343
0.3107162189282758
0.3072063961430687
0.30384622579627296
0.3007671169331498
0.29807337048355026
0.2958319762573801
0.2940660622124423
0.2927526372259701
0.29182484832309435
0.29117853140899946
0.2906824142734611
0.290190973126594
0.2895586841785133
0.2886542752189942
0.2873735821532219
0.28564975200632636
0.2834597936555414
0.2808268350586699
0.2778178660256173
0.27453718748623523
0.271116208485784
0.26770058964918614
0.2644359916013618
0.26145382338757184
0.25885838593766825
0.25671666906155666
0.25505180071703987
0.2538407897813507
0.2530167832796205
0.25247561711703326
0.2520860190833655
0.25170246538873114
0.2511794322432453
0.2503856474366838
0.24921694687423135
0.24760647758101836
0.24553124843427787
0.24301438739181333
0.2401228842635299
0.2369610399792802
0.23366026358432315
0.23036621570358126
0.22722455696197585
0.22436669640476775
0.221896934961808
0.21988226244300232
0.2183458068061539
0.21726457692849577
0.21657171983515888
0.21616307143132762
0.21590735950677753
0.21565906027162363
0.21527264993598094
0.21461685628962457
0.2135875152377397
0.21211777380545635
0.2101846408700084
0.2078112443891989
0.20506457417293256
0.20204893115106187
0.19889572436884703
0.19575061445120956
0.1927592620230711
0.1900530761296918
0.18773635770092362
0.1858760965466717
0.18449542062473967
0.18357133881236012
0.1830369981346644
0.18278823449683637
0.18269377568865233
0.1826080979202266
0.1823856774016742
0.18189524192277093
0.18103262738870118
0.1797309808245961
0.17796731110768782
0.17576474619578092
0.17319027589877933
0.17034820114653612
0.16736993098431105
0.16440112603702556
0.16158744692960145
0.15906030270729904
0.15692399429997003
0.1552455115175198
0.15404798231775169
0.15330841557789873
0.15295995832309145
0.15289844645851466
0.15299260777394402
0.15309691847949422
0.15306585478528012
0.15276814448107762
0.15209962347207112
0.15099343878339125
0.14942659929227137
0.14742223295651402
0.14504732958602604
0.14240619011065714
0.13963022357566945
0.1368650906059838
0.13425645182652202
0.13193571628254397
0.13000718490390192
0.1285378475005011
0.12755083203014458
0.12702314737006568
0.126887940545395
0.127041047461317
0.1273511959076077
0.12767286209438167
0.1278605222317536
0.12778290410949944
0.12733584363280376
0.12645248782679724
0.1251098455687127
0.1233310448163537
0.12118307537962543
0.11877023818838012
0.11622394228787737
0.11368984830303934
0.11131361685878728
0.10922665700038119
0.10753326965767424
0.10630044464057035
0.1055513099068734
0.10526287433381618
0.10536828494652971
0.1057633776501983
0.10631688023459804
0.10688326890984344
0.1073170198860492
0.10748686095299155
0.10728862801585398
0.10665546809976834
0.10556439008196714
0.10403852192025399
0.10214485342453389
0.09998768552465927
0.09769842726588929
0.0954227392731459
0.09330628217135248
0.09148046500576644
0.09004958870624115
0.0890806430826824
0.0885967560928925
0.08857493661410507
0.08894833167145037
0.08961277717011336
0.09043700089986961
0.09127547907083473
0.09198268789312176
0.09242735515650805
0.0925053167661766
0.09214971974725988
0.09133757297698998
0.09009200441317007
0.08848000386570597
0.08660587226444856
0.08460101865465999
0.08261110366125979
0.08078178790917052
0.07924448044365288
0.07810348219455829
0.0774257829717919
0.07723451073315707
0.07750667435588679
0.07817542086511178
0.07913658616601751
0.08025889804837827
0.08139683272230988
0.08240486639792624
0.08315172686500352
0.08353325002872668
0.08348258291422622
0.08297673439873507
0.08203883244005612
0.08073586684809612
0.0791721385527046
0.07747905659914384
0.07580228161233482
0.07428747421719871
0.07306604345899674
0.07224229026757988
0.07188320445285373
0.07201191397262122
0.07260542770411656
0.07359689267246902
0.0748821447828642
0.07632991182507715
0.07779467000922308
0.07913089554541668
0.0802073162234333
0.08091976794845832
0.08120139774562223
0.0810292144921571
0.08042634614586755
0.07945978251665818
0.07823382453438105
0.07687988124429657
0.07554361327132568
0.07437068124039041
0.07349249419675126
0.07301335307026058
0.07300024767082236
0.07347630595624051
0.07441853680374819
0.07576008723847612
0.07758108587529515
0.07993110885147302
0.08265946583383224
0.08561546648919527
0.08866267206404621
0.09169175192027634
0.09463068653972531
0.09745131825633332
0.10017160848461175
0.10285338049117371
0.10559576866257878
0.10852501550079516
0.11178161508745159
0.1155060615041791
0.11982459725294416
0.12483635672030682
0.1306031631728806
0.1371429780251765
0.14442764361113505
0.15238514041259507
0.16090613779144874
0.16985419699417983
0.17907862768761085
0.18842873953856423
0.19776809379352375
0.20698735981438182
0.2160145180829767
0.22482141093324928
0.23342599977971085
0.2418901078889745
0.25031286964759986
0.258820527557555
0.2675535757004694
0.2766525081579717
0.2862435674320317
0.29642588790920743
0.30726129285611276
0.31876774368725863
0.3309170827365859
0.3436372904859331
0.35681903629719264
0.370325881416848
0.3840071355117219
0.3977121082486373
0.41130436087407646
0.4246745627499332
0.43775069435804514
0.4505045980323535
0.4629542351873694
0.47516142908970577
0.4872253141259226
0.49927213279798716
0.5114423791875304
0.5238765473761798
0.5367008798659052
0.5500145110432652
0.5638792641748732
0.5783131006752403
0.5932878628783075
0.6087315312659131
0.6245347751999495
0.640561155926901
0.6566599831135888
0.6726805664268364
0.6884864671131269
0.7039683545343531
0.7190542091723532
0.7337158733610685
0.7479713085150098
0.76188233790079
0.7755480959049696
0.7890948250295152
0.8026630193560575
0.8163931729662257
0.8304115283619876
0.8448172199299031
0.859672070936585
0.8749940427965441
0.8907549778437223
0.9068828565599579
0.9232683483071422
0.93977501433176
0.9562521643006331
0.9725491078805844
0.9885294063180972
1.0040837289750641
1.019140056333324
1.033670230726817
1.0476922135700553
1.0612678281296504
1.0744962087921632
1.0875035980595613
1.1004304900134745
1.1134173787355317
1.126590506727702
1.1400490083765435
1.1538547069486702
1.168025563858594
1.1825334214402534
1.1973062601754896
1.2122347494261931
1.2271824504388482
1.241998672880278
1.2565327264173038
1.2706481722964105
1.2842356798794894
1.2972232296483797
1.3095826639370218
1.3213319441599272
1.3325328935837089
1.3432846465949269
1.3537134456955482
1.3639597849672034
1.3741641584915207
1.38445280877047
1.3949248701906092
1.4056421660185519
1.41662265766881
1.4278381874753232
1.4392167359199308
1.450648972364525
1.4619984580555891
1.473114502659946
1.4838464158444187
1.4940577588554893
1.5036392010550514
1.5125187229249435
1.520668166799106
1.5281054940920502
1.5348925280703893
1.5411284031206824
1.5469393617448988
1.5524658980246666
1.5578485060416158
1.563213428297715
1.5686597991795226
1.574249441953653
1.5800003180346172
1.5858842697563547
1.5918292776007053
1.59772601092956
1.6034380309894043
1.6088146474470597
1.6137051699693497
1.6179731598027565
1.6215092863091722
1.6242415299704374
1.626141733120491
1.6272278571738452
1.6275617253971126
1.627242472176854
1.6263963400150354
1.6252933433658774
1.6242077133053034
1.6232720172678345
1.6225917145725859
1.622234953418724
1.6222260201533143
1.6225430820428521
1.6231204445017298
1.623855101824395
1.6246169401898842
1.625261594197576
1.6256446984468453
1.625636139116731
1.6251329105016794
1.6240693180160835
1.6224235289264382
1.620219829579809
1.6175263681753633
1.6144486040322146
1.6111191045848867
1.607684688847561
1.6042921758344229
1.6010741329799942
1.5981360196033887
1.595545983903774
1.5933283122282154
1.5914611718432077
1.589878868163144
1.5884783954824715
1.5871296399802266
1.5856882362557871
1.5840098189085299
1.5819642741174924
1.5794485961771214
1.57639709050181
1.5727879243580531
1.568645384092915
1.5640376179055657
1.5590700851151158
1.5538753531560903
1.5486002410426718
1.5433915677890444
1.5383819008297295
1.533676699483842
1.5293441119505486
1.525408424576915
1.5218478046294368
1.5185965575225058
1.5155516775505689
1.5125830508926648
1.5095463121481691
1.5062970959164594
1.502705288376573
1.498667883822957
1.4941191876700042
1.4890373671842096
1.4834467087126384
1.477415360454458
1.4710487817287823
1.4644795399701342
1.4578544541926965
1.4513203434106534
1.445009775058527
1.4390282084554318
1.4334437918005343
1.4282808114409005
1.423517434643025
1.4190879668213014
1.4148894022701757
1.4107916271686853
1.406650276116208
1.4023209837121202
1.3976736361354598
1.3926052276806726
1.3870500637621532
1.3809863116463952
1.3744382576804641
1.367474050063528
1.3601991481147004
1.3527461192685035
1.3452617825391213
1.3378929569407378
1.330772209907874
1.3240050007596451
1.3176594776952177
1.311759927061658
1.3062845161254601
1.301167550301018
1.2963060238827766
1.2915698230497756
1.2868145824013908
1.2818959365369995
1.276683771635639
1.2710750819917556
1.2650041730197434
1.258449211986096
1.25143448523788
1.2440281409742624
1.2363356385143573
1.2284895452926858
1.2206366803234336
1.212923862620783
1.205483659619257
1.1984215306379686
1.1918056238760857
1.1856602256806745
1.1799635033182285
1.1746497622031422
1.1696159966298607
1.1647320927774218
1.1598536852452037
1.1548364086325833
1.1495501491185969
1.1438919009976918
1.1377959696842612
1.1312405224447994
1.1242498456263728
1.116892087428148
1.1092727071692392
1.1015242722841687
1.0937936017871197
1.086227514692277
1.078958578434162
1.0720922523318894
1.0656966845846254
1.0597961615394367
1.0543688504628166
1.0493490567691601
1.0446337747529126
1.040092890593112
1.035582038889135
1.0309568542403582
1.0260872228258207
1.0208701389399681
1.0152399079971937
1.009174697263992
1.0026987930874283
0.9958803436666707
0.9888248083208333
0.9816647544844376
0.9745470011716669
0.9676183673967059
0.9610114205940768
0.9548316200828931
0.9491471140623228
0.9439821888794306
0.9393150118007114
0.9350798882405591
0.9311738124934198
0.927466670738331
0.9238140975746695
0.9200717276018127
0.9161094469987979
0.9118242500600717
0.9071504422000274
0.9020661906851598
0.8965957818625343
0.890807363931318
0.8848063962106256
0.878725446134979
0.872711332718561
0.8669108749755566
0.8614566403404876
0.8564540881324679
0.851971366550665
0.8480327619421437
0.8446164415734002
0.841656710858826
0.8390505640928692
0.8366678874545664
0.8343643155432949
0.8319954829584316
0.829431275879014
0.8265686885994892
0.8233420265342491
0.8197294569497903
0.8157552661931765
0.8114876024635767
0.8070319250801037
0.8025208014772796
0.7981010506692892
0.7939194916703151
0.7901086919148812
0.7867741107220994
0.7839838962911382
0.7817623349690626
0.7800875940223687
0.7788939788654473
0.7780784837927476
0.7775109949833047
0.7770471470364975
0.7765425745517023
0.7758671637079563
0.7749179087997062
0.7736291152413459
0.7719789502993696
0.769991700320842
0.7677355135049323
0.7653158491707531
0.7628652747528274
0.760530609265338
0.7584586717224693
0.7567820295587437
0.7556061420932747
0.75499915752523
0.7549853622016742
0.7555429233891033
0.7566061465019097
0.7580720258345413
0.7598104475660337
0.7616814315497362
0.7635397918526458
0.7652476059742713
0.7666940595295291
0.7678056492532834
0.7685527337325007
0.7689517906347162
0.769063159479569
0.7689844909066447
0.7688405436709351
0.7687703281070949
0.7689128545497795
0.7693928817539819
0.7703080603592867
0.7717187298853322
0.7736413679996547
0.7760463332892202
0.7788601224888927
0.7819719212135896
0.7852438069628195
0.78852360565643
0.7916591432142689
0.7945124971358455
0.7969728530360762
0.7989667076498259
0.8004644195640603
0.8014824664463148
0.8020811878162291
0.8023582343133869
0.802438364692783
0.8024605892890694
0.8025639184369029
0.8028731108912758
0.8034858172917732
0.8044623771580333
0.8058192681575925
0.8075268488774165
0.8095116160523688
0.8116627552973678
0.8138423441119225
0.815898208415879
0.8176781741290862
0.8190443187510525
0.8199460227229207
0.8203744337274942
0.8203065945343112
0.8197656669934809
0.8188186748072129
0.8175699527976655
0.8161509439024038
0.8147073426386553
0.8133848435236455
0.8123148894949411
0.8116018153746992
0.8113126448651301
0.811470539816343
0.8120525429978757
0.8129918353271645
0.8141842866016985
0.8154986585035607
0.8167894611351695
0.8179112045989454
0.8187326505769698
0.8191496688667322
0.8190954403856686
0.8185470079033181
0.8175275332697887
0.8161040401872908
0.814380863477982
0.8124894460794282
0.8105754825088557
0.8087846672834915
0.8072484433409016
0.8060711455032433
0.8053197974727268
0.8050175610994607
0.8051414791529833
0.8056247325507309
0.8063631910901934
0.8072256164534526
0.8080665187429263
0.8087404080610369
0.8091160460898645
0.8090893026268996
0.8085933585895776
0.807605256747437
0.8061481589505869
0.8042890889012365
0.8021323814215452
0.7998094794490772
0.7974660775010595
0.7952478700947188
0.7932863001676216
0.7916857025419246
0.7905131009198384
0.7897916571514715
0.7894984140063622
0.7895665524019471
0.7898919421357155
0.7903433448897496
0.7907752707664675
0.7910422298682902
0.7910129838772998
0.7905834025909853
0.7896866669267825
0.7882998196542301
0.7864460226234372
0.7841922995366133
0.7816429852159165
0.7789295225989129
0.7761976062028281
0.7735929305448891
0.7712469385626626
0.769263965078305
0.767711033794027
0.7666113065599378
0.7659418261455747
0.7656357734683746
0.7655890183258272
0.7656703224000139
0.765734195793354
0.7656351486082681
0.7652419425268371
0.7644504473465509
0.7631938439848458
0.76144917521126
0.7592396028759022
0.7566321506809824
0.7537311534486589
0.7506680541164968
0.7475885472017234
0.7446383272215644
0.7419488371135864
0.7396244116999464
0.7377320746828552
0.7362949879124214
0.7352901941581829
0.7346508743375761
0.7342728982480904
0.7340250275718085
0.7337617724111485
0.7333376428685313
0.7326214006260383
0.7315089154811589
0.7299333683513293
0.7278718020060883
0.7253473782955437
0.7224271209219063
0.719215364707334
0.7158435525893921
0.7124573790853072
0.7092025387123061
0.7062104744079556
0.7035855209944114
0.7013947021738849
0.6996611797964842
0.6983619966317484
0.697430333597113
0.696762060490068
0.6962259389926952
0.6956764792074129
0.6949681912366428
0.6939698367624656
0.6925772855823713
0.6907237186137952
0.6883861786262766
0.6855878274699239
0.6823956888469476
0.6789140975795042
0.6752744966051604
0.6716225804411428
0.668104043604678
0.6648503290333317
0.6619657715492614
0.6595173948546778
0.6575283607996889
0.6559757121538335
0.6547926298345477
0.6538749836393211
0.6530915352502349
0.65229679476971
0.6513452723001646
0.6501057295236814
0.6484740362377497
0.6463833733598059
0.6438107836593878
0.6407794289866046
0.637356333043667
0.6336458306527305
0.6297793647513636
0.6259026298567913
0.6221613204862408
0.6186868795772775
0.6155836419520592
0.6129186313127963
0.6107150095095971
0.6089498193120007
0.6075562416374423
0.6064301462834122
0.6054402949319915
0.6044411976856007
0.6032873646466589
0.6018475574972473
0.6000176460348567
0.597730811176923
0.5949640956929837
0.5917406614331481
0.588127532099627
0.5842290425145764
0.5801766356155635
0.5761160059198149
0.5721928479445569
0.5685386046273545
0.5652576107903665
0.5624168901358024
0.5600396045137712
0.5581027966938118
0.5565396475933587
0.5552460270099031
0.5540906966255259
0.5529281665426475
0.5516129468636871
0.5500137992707262
0.5480265935612546
0.5455845106527086
0.5426645933146266
0.5392900033971169
0.5355277646023903
0.5314822117526036
0.5272847877853232
0.5230811872177756
0.5190171045671882
0.5152239827711254
0.5118061566517451
0.5088306499112583
0.5063206243997731
0.5042531228868284
0.5025613262898595
0.501141104406357
0.49986121891840074
0.49857617992841297
0.49714049753881195
0.49542293343167926
0.4933193574045049
0.49076295037472517
0.487730755111878
0.48424593346607236
0.4803755091395187
0.47622381695437377
0.47192229984820405
0.46761665233823607
0.4634525689416966
0.4595614925961511
0.45604775812375775
0.45297838922672606
0.45037654775516506
0.448219276478613
0.44643975631450616
0.44493385706033417
0.44357034039817844
0.4422037164304591
0.4406884952595951
0.43889343856766894
0.4367144161521702
0.43408460893053463
0.4309810596723005
0.42742693022757666
0.4234892442985744
0.4192723367074493
0.4149076503917683
0.4105408798687579
0.4063177196556451
0.4023696126899951
0.39880089379396594
0.3956785866697675
0.39302585316750865
0.39081973605672793
0.38899341625486106
0.387442763559398
0.38603653965241985
0.3846292546363474
0.38307541861359945
0.38124379326625746
0.37903024839181193
0.37636796490769875
0.37323398558345605
0.3696514722691925
0.36568744866711866
0.3614462495993915
0.35705931800357743
0.3526723483969035
0.3484310352965953
0.3444668216402191
0.34088404224993196
0.33774972082794513
0.3350870192243666
0.3328729802087345
0.33104078469848597
0.32948630249110994
0.32807829526868787
0.3266712731336398
0.3251197461883861
0.3232924761150069
0.3210853327109928
0.3184314968937801
0.31530801143290677
0.31173803817848134
0.3077886008327148
0.3035640342177643
0.29919578127119467
0.29482953651023397
0.2906109944521091
0.28667159803438463
0.2831156820792181
0.28001027028882064
0.2773785245133005
0.275197487522196
0.2734003402329439
0.2718829524430325
0.2705140858345445
0.2691482505098992
0.2676399565715173
0.26585796570147907
0.2636981476972747
0.2610936834763405
0.2580216158082143
0.2545051065430058
0.25061117938292454
0.2464441691501281
0.24213551878218134
0.23783092279631274
0.23367607570974847
0.22980242046005409
0.22631429186938626
0.22327871363995627
0.2207188476218727
0.21861173658467364
0.21689056144579585
0.21545119200272808
0.21416238993755207
0.21287866535268746
0.2114545283505556
0.20975874061323627
0.20768717193821964
0.20517300324294205
0.20219327729694167
0.19877115595032707
0.19497366290530943
0.19090513298404535
0.18669700912409998
0.1824949858427015
0.17844475765707582
0.17467776750478925
0.1712983502079982
0.16837352946891432
0.16592646713764522
0.1639342059837296
0.16232992692460413
0.1610094997577579
0.15984168616515537
0.15868099623496354
0.15738194002789543
0.1558132791811686
0.15387088344741243
0.15148793369920055
0.14864147266120886
0.14535466213868425
0.14169452578897535
0.13776539838937776
0.13369872283259351
0.1296401935909889
0.1257355051369286
0.12211610036311589
0.11888631404684558
0.11611316984546702
0.11381982956422658
0.11198333592779977
0.11053686980876208
0.10937630095974009
0.10837039101795343
0.10737365004096
0.10624058808631814
0.10483996679124624
0.10306765590837226
0.10085683631027065
0.09818455072161769
0.09507396094765974
0.09159209064574572
0.08784327459317044
0.08395895568263692
0.08008482838651156
0.07636658717715857
0.07293567494728079
0.06989642647417367
0.06731586541518625
0.06521715357556507
0.063577333679986
0.06232958660102366
0.06136978209130486
0.06056668178804962
0.059774795748815904
0.058848634031161924
0.05765695827230561
0.05609563822487564
0.054097854761446074
0.05164065060669287
0.04874718756586328
0.04548448929630516
0.04195689057531423
0.03829583429559308
0.034647014929507905
0.031156126949423015
0.027954613248042038
0.025146808602659308
0.02279973667062465
0.020936559257183924
0.01953431908701369
0.018526197032688235
0.017808062846834637
0.01724867816667199
0.016702553049759063
0.016024197553653596
0.015082373315575045
0.013772950088150342
0.012029108743954086
0.009827892007662407
0.007192461684521713
0.004189841431881626
0.0009243660270361546
-0.0024725216373107633
-0.005855127088794872
-0.009077755855050012
-0.01200896504337365
-0.014544419876469757
-0.016617096696990522
-0.018203833699689247
-0.01932758815988946
-0.020055179205017294
-0.020490737082444095
-0.020765500154951815
-0.02102495836498253
-0.02141460165497795
-0.022065668387718063
-0.02308228881057609
-0.024531282050977935
-0.026435605384246656
-0.02877209700513621
-0.031473733256298014
-0.03443617936043609
-0.03752799242484832
-0.04060347797716898
-0.04351694154503285
-0.04613694023573717
-0.04835913927198655
-0.05011651499643177
-0.05138590560382721
-0.05219026836949586
-0.05259642242086408
-0.05270849800530324
-0.05265773348559548
-0.05258961880418202
-0.05264964390350565
-0.0529690471463456
-0.05365195878007585
-0.05476519793212155
-0.05633172187780586
-0.05832836881188387
-0.060688115077005216
-0.0633066258958753
-0.06605245837579049
-0.06877991804438703
-0.07134331042929853
-0.07361119263782204
-0.07547922989266255
-0.07688039853647155
-0.07779153676400143
-0.07823560185057717
-0.07827941292362513
-0.07802710023051544
-0.07760990213403016
-0.07717330857661195
-0.07686280950070172
-0.07680964326908087
-0.07711794012912163
-0.07785451920824951
-0.07904233778178908
-0.08065823404449281
-0.0826351843390127
-0.0848688538880533
-0.08722779979891111
-0.08956632759922166
-0.0917387428166193
-0.09361360255840011
-0.09508657204727079
-0.09609062762588147
-0.09660260748898589
-0.09664546891190699
-0.09628603102207209
-0.09562842406685183
-0.09480388640902916
-0.0939579079910442
-0.0932359787553391
-0.09276933706469555
-0.09266211316648562
-0.09298112618813496
-0.0937493334049673
-0.09494357301173674
-0.096496821351093
-0.09830474364574227
-0.10023589700298095
-0.10214458695044454
-0.10388511901576677
-0.10532605030624488
-0.10636304604458377
-0.10692908257343493
-0.10700099808755158
-0.10660174986225757
-0.10579815702497855
-0.10469434982308684
-0.10342156661936346
-0.10212529735625124
-0.10095103197619056
-0.10003000884196248
-0.09946635820094041
-0.09932689918054957
-0.09963458905611387
-0.10036626602238667
-0.10145490642201864
-0.1027961754777154
-0.1042586302967735
-0.1056965764068283
-0.10696431933551412
-0.10793041619012736
-0.10849053219337351
-0.10857764368790404
-0.10816858886847171
-0.10728632501040067
-0.10599767124111709
-0.10440675780799115
-0.10264482307380683
-0.10085735698100469
-0.09918984947202691
-0.09762901014746815
-0.09613713038812656
-0.09478506416484259
-0.09359980359635585
-0.0925622217208356
-0.09160932972434822
-0.09064082767301436
-0.08952930751754537
-0.08813310962899305
-0.08631057437840806
-0.0839342937165013
-0.08090396770939375
-0.07715660754315232
-0.07267308625594573
-0.06748039596651392
-0.061649390645697646
-0.05528823538428487
-0.0485322033884714
-0.041530819444115914
-0.03443360833707543
-0.027375843273546325
-0.020465689344316154
-0.013774000520226839
-0.007327768920017168
-0.0011078675818562743
0.004948692308188547
0.010942210683997571
0.017000095594858586
0.023264006669721393
0.02987560353753375
0.03696229424758531
0.04462437873375509
0.0529248458099761
0.06188282243807967
0.0714713164993263
0.08161947402287457
0.09221912991793622
0.1031350109783164
0.114217592418156
0.12531734945159806
0.13629900887244614
0.14705440558991273
0.15751268563315593
0.16764685688343678
0.17747604630258643
0.18706324270453725
0.19650874602316978
0.2059399643077717
0.21549855718729224
0.22532618429068038
0.23555025366722518
0.2462710652508058
0.25755160785535475
0.2694110084427037
0.2818222748941131
0.2947145532387416
0.30797967838580126
0.32148237712909655
0.33507312468276806
0.34860239626095996
0.36193491865747546
0.37496252678152675
0.38761436666227217
0.39986344618097236
0.4117288922994592
0.42327369383166397
0.4345981507114688
0.4458296709881598
0.4571099142906871
0.46858054024799933
0.4803689569093855
0.49257546420872483
0.5052630509599503
0.5184508441248928
0.5321118515848131
0.5461752193688703
0.5605327823862759
0.5750492674308345
0.5895751497166872
0.6039609044579772
0.6180712584485081
0.6317980465974924
0.6450704149340885
0.6578613713395565
0.670190042775728
0.6821194180565361
0.6937497971158606
0.7052085880029898
0.7166374503468717
0.7281780437764565
0.7399577763410322
0.7520769479744788
0.764598547490729
0.7775417018516135
0.7908794189383933
0.8045408447802271
0.8184178142863271
0.8323750542504972
0.8462630398868793
0.859932246409616
0.873247400612511
0.8861003374047762
0.8984202028155709
0.9101800047261555
0.921398870098361
0.9321397877461198
0.9425030576033127
0.9526160877192271
0.962620537722813
0.9726580672430185
0.9828560843291321
0.9933148889150343
1.0040974698146572
1.015222953989832
1.0266643493218202
1.0383508018397787
1.0501741464529215
1.0619991099550516
1.073676167560311
1.0850557944828425
1.0960027175164497
1.1064087715703448
1.116203102673687
1.1253587187077352
1.1338947466343234
1.1418741752673816
1.1493973045407908
1.1565915425038398
1.163598548785477
1.1705599830146514
1.177603253240652
1.1848286593973574
1.192299190298702
1.2000339729065153
1.2080060151020597
1.2161444629144917
1.2243411512530251
1.2324608069114633
1.2403539051039492
1.2478709210446233
1.2548765815272915
1.2612627214611647
1.2669584868754022
1.2719368856512636
1.2762170447505812
1.279861952987288
1.2829719102952621
1.2856743247237938
1.2881108559018302
1.290423163458322
1.2927386554425577
1.2951576317884155
1.2977430813098294
1.30051413096863
1.3034437886460781
1.306461200371333
1.3094582010536056
1.3122995174867
1.3148356248847608
1.3169169984619267
1.3184083650120026
1.3193071416962645
1.3196513739237064
1.319419045267249
1.3186342583803856
1.317364977768709
1.3157164790577593
1.3138211459884876
1.3118256138815017
1.3098765180574128
1.3081062422571694
1.3066200621063122
1.3054859421104354
1.3047279849230304
1.3043241741170193
1.3042086314132204
1.3042781674125083
1.3044024846003466
1.3044370338825386
1.3042372661648876
1.303672883932858
1.302640697787323
1.3010748294491024
1.2989532624911173
1.2963000995668594
1.2931833051819235
1.289708154961848
1.2860070326475845
1.2822265735597425
1.2785134130189308
1.2749999347660987
1.2717914144267877
1.2689558165065906
1.2665172436590002
1.2644536794569374
1.2626992456212214
1.2611507527527261
1.2596779033369154
1.2581361482795934
1.2563809384865618
1.2542819764432867
1.25173607275064
1.2486773491294416
1.2450837891526128
1.2409794954736462
1.236432432598135
1.2315478761516199
1.22645820987505
1.221310069089035
1.2162500891141863
1.2114106536914504
1.2068970384463702
1.202777207884538
1.1990752646594467
1.1957691923440177
1.1927931126590694
1.1900438362054755
1.187391065468701
1.184690251354549
1.1817968447688227
1.178580548196986
1.1749381722399124
1.1708038386184214
1.1661555309054346
1.161017351754444
1.1554572656710431
1.149580548280772
1.1435195833245806
1.1374210061230785
1.1314314519968764
1.1256833046869221
1.1202818398187577
1.1152950218979751
1.1107469535780679
1.106615618431957
1.1028351381804615
1.0993023234244552
1.0958868766494017
1.092444248761105
1.0888298906653675
1.0849135048476546
1.080591901908839
1.0757992035697408
1.07051339340328
1.0647585740629497
1.0586027100543445
1.052151077003003
1.0455360586498748
1.038904290315571
1.0324024073207003
1.0261627934062123
1.0202907241976482
1.0148541642006008
1.0098772160685623
1.0053378633744545
1.0011702278390966
0.9972711200633617
0.9935102425327142
0.989743046152958
0.9858249818298953
0.9816257520489907
0.9770421674111182
0.9720083496370968
0.9665022822998479
0.9605480680528633
0.9542136714017374
0.9476043679720106
0.9408525415046303
0.9341048273202094
0.9275078607393559
0.9211940255030195
0.9152685972367401
0.9097995404461123
0.9048109577846278
0.9002808328252078
0.8961432872886724
0.8922951317758941
0.8886060687723377
0.8849315491838058
0.881127023916103
0.8770621954546923
0.8726338744004475
0.8677761824741883
0.8624671032488355
0.8567307393778817
0.8506350553669204
0.8442853268414926
0.8378139375425459
0.831367522790692
0.8250927179065406
0.8191219066310403
0.8135603645897312
0.8084760562882081
0.8038930843799623
0.7997894324379157
0.7960992221828876
0.7927192642157502
0.7895192610219696
0.7863546635073478
0.7830809225776895
0.779567740718457
0.7757119285305251
0.7714476077347127
0.7667527619039411
0.761651493691703
0.7562117676035918
0.7505388592651474
0.744765152417319
0.7390372823807178
0.7335018844759529
0.7282913424439736
0.7235109319103199
0.7192286173805857
0.7154685015082638
0.712208567866275
0.7093829381754393
0.7068884230366288
0.7045947249353084
0.7023572947772813
0.7000315834683519
0.6974872934939834
0.6946212354550491
0.6913675310723686
0.687704163918863
0.683655236648025
0.6792887137654485
0.6747098708966736
0.6700510917826481
0.665459011743984
0.6610802661012906
0.6570472385955171
0.6534652048522035
0.6504021293769442
0.6478821148232307
0.6458831447639846
0.6443393409200256
0.6431475138922266
0.6421773661660523
0.6412843486473053
0.6403239122417899
0.6391657594349693
0.6377067008277174
0.6358808581408536
0.6336662149472995
0.6310868739005467
0.6282107995061894
0.6251432673897683
0.622016661292231
0.618977616534189
0.6161727684362522
0.6137345007393694
0.6117680890690811
0.6103414979309807
0.6094788299785607
0.609158068784742
0.6093133360703454
0.6098414424362425
0.6106120903678983
0.611480730771116
0.6123028145516999
0.6129480441951125
0.6133132303022282
0.6133324945938663
0.6129838206429479
0.6122913111029653
0.6113229304795122
0.6101839543981297
0.6090067665997649
0.6079357883006501
0.6071116799034321
0.6066611839286851
0.6066839347815756
0.6072422557473244
0.608354608259049
0.609993334669297
0.6120869154785145
0.6145265200671991
0.6171762097004427
0.6198857940636746
0.6225050828423243
0.6248981373014814
0.6269561268216454
0.6286075319032621
0.629824694898879
0.6306260772416145
0.631074002216688
0.6312681042292662
0.6313351257999235
0.6314160610288972
0.6316519040164233
0.6321693972830769
0.6330681752340234
0.6344105611544837
0.6362150164775756
0.638453883555847
0.6410556428897429
0.6439114638597631
0.6468854077309969
0.6498272841888748
0.6525869029188263
0.6550283251859416
0.6570427203707191
0.6585585689736052
0.6595482133471472
0.6600301149244632
0.6600665969907735
0.6597572939512439
0.65922894832645
0.6586225542166272
0.6580791057220128
0.6577253453631813
0.6576609075452994
0.6579481155535865
0.658605430821161
0.6596469408880118
0.6610460062074813
0.6626984983082528
0.6644731806035995
0.6662245649271348
0.6678071631124713
0.6690897385728846
0.6699681628370563
0.6703756185536158
0.6702891502232946
0.6697319214273937
0.6687709575993176
0.6675105952924164
0.6660822791754478
0.664631705496832
0.6633045705049899
0.6622323188686793
0.6615192871412502
0.6612325007561067
0.6613951232945502
0.6619841992573121
0.6629329112930213
0.6641371309303614
0.6654656215826054
0.6667728950833669
0.6679134632662591
0.6687560895445563
0.6691966454469402
0.6691683136220411
0.66864813857059
0.6676592838738882
0.6662687749653396
0.6645809483982947
0.6627272488415122
0.6608533725434107
0.6591050157524114
0.6576136231372726
0.6564835312513442
0.6557817655280299
0.6555314895486318
0.6557097478138807
0.6562497229724055
0.6570472865528901
0.6579712019686076
0.6588759810531714
0.6596161356401944
0.6600604291429513
0.660104733090124
0.6596822301303421
0.6587699647643372
0.6573911005734103
0.6556126629909658
0.6535389885703534
0.6513015219803318
0.6490459594693204
0.6469179972857402
0.6450490800983495
0.6435435444604978
0.6424684158055889
0.6418468577149248
0.6416559146892368
0.6418287693771536
0.6422612933073588
0.6428222498931252
0.6433661509680672
0.6437475083657972
0.6438350854995898
0.643524753898127
0.6427496962100386
0.641486956936056
0.6397596996574797
0.6376349498077152
0.6352170439401112
0.632637426723427
0.6300417944060817
0.6275758432364965
0.6253710178834293
0.6235316549002302
0.6221247797203028
0.6211735559249488
0.6206550280148996
0.6205023786387841
0.620611479325286
0.6208510934876781
0.6210757329595735
0.6211399095745866
0.6209123867459909
0.6202890360024687
0.6192030399926497
0.6176314432172649
0.6155974092576159
0.6131679635471068
0.6104474426390879
0.6075672912023169
0.6046732054852139
0.6019108817361993
0.5994117646240317
0.5972801907020611
0.595583185403691
0.5943439123102232
0.5935394159223887
0.5931028788888171
0.5929301727381914
0.5928900608837847
0.5928370551592108
0.5926256673980826
0.592124661013674
0.5912299075346688
0.5898745896096949
0.5880357517394844
0.5857365575053386
0.5830440323406608
0.5800625127988019
0.5769234435485207
0.5737725208382362
0.570755440916368
0.5680036484516761
0.5656214799975099
0.563675960987273
0.5621902550022674
0.5611414065432236
0.5604625982587716
0.5600497016775938
0.559771480212965
0.5594824456984973
0.5590371099678039
0.5583042364341594
0.5571796966262464
0.5555966731926938
0.5535322106342333
0.5510094725321661
0.5480954843198961
0.5448945825507738
0.5415382118935573
0.5381720685966673
0.534941848908522
0.5319789974978817
0.5293878509180958
0.5272354346025684
0.5255449121326006
0.5242933280089241
0.5234138648801678
0.5228023942750138
0.5223276796067385
0.5218442327089527
0.5212065654152704
0.5202834411389653
0.5189707314087207
0.5172016188731653
0.514953148033031
0.512248482469619
0.5091546476163324
0.5057759800265224
0.5022439243689472
0.49870417689202673
0.4953024338441803
0.4921701398941677
0.4894116315953386
0.48709393438109627
0.4852402118327426
0.48382750845100886
0.4827890068845242
0.4820205786619712
0.48139098719662493
0.4807547443220972
0.47996636187200137
0.4788946032596118
0.47743534001361154
0.4755217547826293
0.4731308920673967
0.4702859154492154
0.46705385036148883
0.46353903335756724
0.4598729091062092
0.4562011738558347
0.4526695238548637
0.4494094037720544
0.44652515016075744
0.4440837884543763
0.4421084822342127
0.4405762760009978
0.43942035240336075
0.43853658296998327
0.43779373111414266
0.4370463086694489
0.4361488274695159
0.434970050927618
0.433405850572438
0.4313894090526051
0.4288977708688505
0.4259540996024759
0.42262542068688497
0.41901607067542784
0.415257494236863
0.41149538761961046
0.4078754470720891
0.4045291172630605
0.40156073474587173
0.3990373249539276
0.39698205146852994
0.3953719587904098
0.3941402295681963
0.39318273533057213
0.3923682394908117
0.39155125388252776
0.3905862903393337
0.38934211227450327
0.38771459121671964
0.3856369098146119
0.38308611256891134
0.3800853630609195
0.37670168672404014
0.3730394201116232
0.3692300078924276
0.36541914631487304
0.3617525316273784
0.35836160849870463
0.3553507134822005
0.35278687201126974
0.35069324766721394
0.34904688495076464
0.34778096651055057
0.3467913638752547
0.34594684045815133
0.3451019080928534
0.34411107861297396
0.34284311543178725
0.341193890077976
0.33909658520016933
0.33652824529909875
0.33351203395606555
0.3301149766044728
0.3264414097976721
0.3226227782044226
0.3188047780731419
0.3151331056522509
0.31173920561050766
0.30872741450126384
0.3061647577579221
0.30407439896178384
0.30243338261358144
0.3011748913619428
0.3001947967355514
0.2993618621476812
0.29853059943194515
0.29755552042195643
0.2963053885309891
0.2946760752877261
0.29260076334079665
0.29005649719093185
0.2870664404194335
0.28369761845970515
0.2800543678650958
0.2762681333043664
0.2724846110259365
0.2688494972782242
0.2654942367299884
0.26252316593458075
0.2600033103254042
0.25795783348376006
0.25636377991038006
0.25515433225389295
0.25422536204298174
0.2534456326909205
0.25266965603132224
0.25175194389780015
0.25056125970362836
0.24899347497748975
0.2469817723680133
0.2445031963759305
0.24158091058254266
0.2382819404212538
0.23471062244541285
0.23099840132378033
0.2272909733047754
0.22373403463681873
0.2204590299886662
0.21757029591367094
0.2151348578452353
0.2131758793646611
0.21167040497267958
0.21055161731791985
0.20971538792906477
0.20903048021938855
0.2083514060225042
0.2075326771720248
0.2064430570812244
0.20497841727878596
0.2030719404133387
0.20070067098561334
0.19788777257691248
0.19470027062063924
0.1912425016701424
0.18764591039418285
0.18405619304117976
0.18061904585955293
0.17746591351806068
0.1747011325700534
0.17239172844893486
0.17056086473600632
0.1691855859319993
0.16819907468554318
0.16749720252532013
0.16694873286460493
0.1664081775370116
0.16573004837614955
0.1647831087952967
0.16346323032313448
0.1617035956082922
0.15948124915150086
0.15681935453406193
0.1537849371893806
0.15048233367080405
0.14704298864709348
0.14361259836666812
0.1403368590779478
0.137347215449691
0.13474800403524778
0.1326062502680222
0.1309451177293155
0.12974165091985906
0.12892903248828216
0.12840313396326725
0.12803271875808922
0.12767229870636135
0.12717638564169495
0.12641374297736466
0.12528024224205442
0.12370906608439333
0.12167725900511156
0.11920798458551157
0.11636826825899647
0.11326244657891693
0.11002196421403133
0.1067925174127598
0.10371980242352195
0.10093526391507654
0.09854323844077363
0.09661075143401693
0.0951609664761079
0.09417092806777858
0.09357381885765632
0.0932655103744256
0.09311476603136039
0.09297609766207436
0.09270401710017859
0.09216728775894809
0.09126178116706568
0.0899206799731613
0.08812102867796531
0.08588599086277976
0.08328259196100822
0.08041516852600075
0.07741516522651609
0.07442827831097426
0.07160020402779485
0.06906238704573686
0.06691916391815005
0.0652375600784383
0.06404073910790274
0.06330574550727551
0.06296576192518592
0.06291665989031456
0.06302720281593825
0.06315190253566877
0.0631452708831206
0.06287607127156536
0.062240175229687396
0.061170765406115546
0.059644886301581476
0.05768570149738644
0.055360236426934176
0.05277282764357486
0.05005491981606721
0.04735220919283094
0.04481039202228608
0.04256091297319125
0.04070810859889648
0.0393190043328053
0.038416763756219885
0.03797843136987098
0.037937189822388626
0.038188910642454305
0.03860235724334283
0.039032041458666115
0.039332475122040376
0.039372421646736676
0.039047752561438796
0.038291650514775816
0.03708116000747936
0.03543944462085058
0.03343352978829359
0.031167752063158718
0.028773556114203822
0.026396638189849185
0.02418269453851482
0.022263169828959133
0.020742400614532266
0.019687412328638205
0.019121368552577993
0.019021313787083605
0.019320430680784897
0.01991459076236231
0.02067255744509157
0.021448842562585856
0.022097957948457488
0.022488667015980835
0.02251684129383891
0.02211566343066085
0.021262177927178317
0.019979548364692012
0.018334800176606665
0.016432269916271006
0.014403402252445404
0.012393893433548353
0.010549439708000354
0.00900148574455998
0.007854368096576993
0.007175112197456011
0.006986881628497529
0.007266720890433419
0.007947812631893415
0.008926028381559434
0.010070131552705384
0.011234633978944945
0.012274047493891039
0.013057135510817641
0.01347976955840796
0.013475132285291135
0.013020268192197712
0.01213834086042994
0.010896375723391681
0.009398709334432513
0.007776786362310631
0.006176303055446976
0.004742955662262337
0.0036081888515132744
0.002876339176550121
0.0026144320707777204
0.0028456311154968347
0.0035469808114397187
0.004651663807234644
0.006055551631564106
0.007627407697703419
0.009221743839264194
0.010693071889860958
0.011910155262766557
0.012768865486665087
0.013202385210185016
0.01318775893405677
0.012748150239583976
0.012081299415357755
0.011420103987497189
0.010892777801129117
0.010641786281044934
0.010809594852032754
0.011524417359221112
0.012887359532327494
0.014962215981126733
0.01776891946328913
0.021281283655915174
0.025429260384003362
0.030105490352605714
0.03517550615136583
0.0404905887902659
0.04590201927928832
0.051275330208076515
0.05650316228168263
0.0615154673251051
0.06628605901544415
0.07083487011037101
0.07522569521965965
0.07955964007302771
0.08396491851560282
0.08858399597217625
0.09355933786753619
0.0990191580468105
0.10506456223971858
0.11175934505603338
0.11912343925342585
0.1271306585089964
0.13571095464774366
0.1447569683747196
0.1541342322795677
0.16369402737227037
0.1732876346628107
0.1827805867408296
0.1920655243113817
0.2010723991994647
0.20977502508217913
0.21819333471719518
0.2263911227142869
0.2344694948031743
0.24255666482898353
0.25079509821650325
0.25932726039052506
0.26828136519617585
0.2777585183631748
0.28782251450129503
0.2984932863682073
0.3097446476410123
0.3215065501447083
0.33367163458434757
0.3461054335495736
0.3586592280503686
0.3711842990967149
0.38354617927825674
0.39563750930004404
0.4073882409870774
0.41877218801645677
0.42980928314585215
0.4405633209850376
0.45113540726373236
0.4616537558270653
0.4722608320998222
0.48309910150679586
0.4942967778931127
0.5059549669884926
0.5181374634027079
0.5308641998934299
0.544108990137759
0.5578017859606937
0.5718352280672863
0.5860748490471799
0.6003719299103571
0.6145777516668002
0.6285578469061529
0.6422048563334664
0.6554487317737396
0.6682632869040733
0.6806684544821381
0.6927280291177071
0.7045431165405
0.7162419305956444
0.7279669367079297
0.7398606003021447
0.7520511352234179
0.7646396472014682
0.7776899308460684
0.7912219189148898
0.805209425085033
0.8195824011814964
0.8342334879093329
0.8490282178581827
0.863817872038032
0.8784537314588616
0.8928013287103154
0.9067533044974443
0.9202396106452473
0.9332340608308257
0.9457565878118492
0.9578709861980921
0.9696783617192728
0.9813069282205197
0.9928991511266215
1.004597495862368
1.0165301762728873
1.0287982980878978
1.0414656559171729
1.0545521825183835
1.0680316915686305
1.0818341348929121
1.0958521531962815
1.10995127906838
1.12398279351919
1.1377979775586955
1.1512623637765402
1.1642685928777747
1.1767466166873979
1.1886702488825096
1.2000594222207823
1.2109779313119884
1.221526881885847
1.2318344877874865
1.2420432144416949
1.2522955272732625
1.2627196401273166
1.2734166587335776
1.2844503777018172
1.2958407297897072
1.3075615286743476
1.3195427261807378
1.3316769630139296
1.3438297717635652
1.355852433439628
1.3675962290520995
1.3789266911906244
1.3897364605602531
1.399955488985986
1.409557590144922
1.4185626967947336
1.4270346035451926
1.4350744161260183
1.4428103483823396
1.4503848657389453
1.457940433620624
1.465605265872504
1.4734804682243043
1.4816298352857988
1.490073299814658
1.4987846754879819
1.5076939141307695
1.5166936564480735
1.525649435029536
1.5344125308851402
1.542834225024868
1.5507800500383628
1.558142646630677
1.5648519666268086
1.570881823703859
1.5762521506194989
1.581026741983501
1.5853067035255841
1.5892202490908773
1.5929098441041678
1.5965179539902488
1.6001727925942437
1.603975465645874
1.6079897677549122
1.6122356316790312
1.6166868710953284
1.6212734378288034
1.6258879725845086
1.6303960079520887
1.6346488249415243
1.6384977045627975
1.6418081794055532
1.6444728901748418
1.6464217886956636
1.647628688645118
1.648113522780875
1.6479400857127098
1.6472094831703399
1.6460499289988941
1.644603888623163
1.6430896251283962
1.641714222851018
1.6405833967669894
1.6397655507323265
1.6392852267509446
1.6391208477461867
1.639206974789295
1.6394408578315642
1.639692638708882
1.6398182076774734
1.6396734549935648
1.6391285224930423
1.638080660127201
1.6364644289672838
1.6342582519366338
1.6314866710391653
1.628218090130894
1.6245582241877854
1.6206398963012072
1.6166101811421936
1.6126161533817758
1.608790636111327
1.6052393443068096
1.6020306818242387
1.5991891906675295
1.5966932937600256
1.5944775521729682
1.592439215857654
1.5904484266499685
1.5883610748061379
1.5860330505823874
1.5833344958146045
1.5801626604540846
1.576452105572069
1.5721812540919016
1.5673746480174968
1.5621006912048698
1.556465098629985
1.5506006933842147
1.5446545501385889
1.5387737435641393
1.5330910967522398
1.5277123246788527
1.5227058311999933
1.5180961583195767
1.5138617289609455
1.5099371041953429
1.5062195339740634
1.502579160132994
1.498871872928361
1.4949535626163888
1.490694371032965
1.4859915481293853
1.4807796549768906
1.475037114498825
1.4687884686991033
1.4621021214337406
1.455083787678701
1.4478662905253554
1.4405967046447372
1.4334221047078755
1.426475313806145
1.4198620469155077
1.413650707891979
1.407865838739474
1.4024858623813359
1.397445339888807
1.3926415212131817
1.3879445481903483
1.3832103110765313
1.378294700127957
1.3730678571805117
1.3674270321854916
1.3613067862141373
1.3546855421897934
1.3475878421163738
1.340082089849895
1.3322740003663194
1.3242963967570196
1.3162963536930261
1.3084209458453733
1.3008029963054313
1.2935482200491626
1.2867250209325842
1.2803579409596102
1.2744254030535846
1.268861968285748
1.2635648866073976
1.2584042998544198
1.2532360982830384
1.2479161721494807
1.2423146632896336
1.2363288216547923
1.229893208316198
1.2229862461971945
1.2156324773016975
1.2079003054857211
1.1998954457252298
1.1917507211115943
1.1836132063158469
1.1756299760090205
1.1679338532824861
1.1606305531122065
1.1537884793541975
1.1474321740123745
1.1415400600100798
1.1360466984185564
1.130849339189099
1.1258181241575949
1.1208089435802706
1.1156776877133487
1.110294498392719
1.104556625569676
1.0983986303154611
1.0917989355534181
1.084782083287462
1.0774164773736092
1.0698078327878204
1.0620889726214688
1.0544069715455873
1.0469089042312063
1.0397275937696995
1.0329687551370277
1.0267007921892077
1.0209482469301543
1.0156895422832108
1.0108592393196194
1.006354587990675
1.0020457301322652
0.9977885560006154
0.9934389558519502
0.9888670715221566
0.9839701529625313
0.9786827612443152
0.9729833192908524
0.9668963691060566
0.9604903145459446
0.9538708705864792
0.9471708603190319
0.940537358414634
0.9341174395443195
0.9280439267994585
0.9224225351560146
0.9173216684700032
0.9127658687453392
0.9087335589053669
0.9051593000213258
0.9019403420445141
0.8989468268108172
0.8960346445764621
0.8930596855976721
0.8898920917103352
0.8864291128657469
0.8826053101351489
0.878399106441885
0.8738350437898698
0.8689815260351188
0.8639442681535956
0.8588560932366709
0.8538640759553777
0.8491152909807478
0.8447425614041529
0.8408516022015559
0.8375108172289724
0.8347447484903173
0.8325318189089346
0.8308065895560655
0.8294663103830042
0.8283811232256403
0.8274069183401991
0.8263995859829041
0.8252292679896426
0.8237932143117112
0.8220259860203505
0.8199060060389054
0.8174578163712897
0.8147498208735195
0.8118877345215577
0.8090043804067758
0.8062468332002058
0.8037621675728802
0.8016832066161702
0.80011566530604
0.7991279474985041
0.7987445951974768
0.7989440313263038
0.7996608169562246
0.800792202038536
0.8022083284091244
0.803727705863562
0.8051659701327305
0.8063889519554791
0.807289590186066
0.8077981347986961
0.8078886976196757
0.807581509555882
0.8069406633662943
0.8060675629298374
0.8050907202408458
0.8041528988733148
0.8033968624012393
0.8029511228189528
0.8029170840053825
0.8033588387195066
0.8042966178682017
0.8057045332777752
0.807512834922431
0.8096144616564274
0.8118752442186138
0.8141467617681789
0.816280593464311
0.8181425700458596
0.8196256303670831
0.820660024402186
0.8212198639774747
0.8213253799998265
0.8210406652282203
0.8204671235415805
0.8197332669342433
0.8189818589802043
0.8183556632534558
0.817983191748333
0.8179658483437625
0.8183677257987227
0.8192090550200906
0.8204639478341725
0.8220626542151733
0.8238981130173513
0.8258361549795556
0.8277283592609749
0.8294263050207977
0.8307958229978732
0.83172985204646
0.8321586421407624
0.8320563051070872
0.8314683257813861
0.8304859692977
0.8292135172039353
0.8277823591634054
0.8263381364190888
0.825026490213961
0.8239788102113349
0.8232993779591171
0.8230551638852689
0.8232692765656469
0.8239187054955386
0.8249365783181293
0.8262187115566578
0.8276338136189545
0.8290363413331887
0.8302807515275288
0.8312357526098059
0.8317971611032584
0.8318981046510717
0.8315155727485329
0.8306726739715009
0.829436378747934
0.8279109686257388
0.826227833268229
0.8245326139183832
0.8229709518191756
0.8216742366339221
0.8207467499105267
0.8202554620769512
0.8202234817090526
0.8206277983021183
0.8214015394993334
0.822440521823937
0.823613453683759
0.8247747919069703
0.8257789933217362
0.8264947663358905
0.826817927472671
0.8266816043752624
0.8260627865389524
0.8249845825395995
0.8235139628051625
0.8217552088835468
0.8198397104380701
0.8179131087117046
0.8161210449474291
0.8145949088085576
0.8134389818429958
0.8127202344787039
0.8124617752915394
0.8126405937767899
0.8131898175776402
0.8140052632173296
0.8149556391036892
0.8158954020648852
0.8166790089290904
0.8171751681041316
0.8172796961132505
0.8169257205996313
0.8160902310585613
0.8147963360658975
0.813111006049601
0.8111385225575783
0.8090102752531415
0.8068719053792702
0.8048690541789364
0.8031331113154583
0.8017683583367404
0.800841765670743
0.8003764418933238
0.8003493764997693
0.8006936971332657
0.8013052203170516
0.8020526544589573
0.8027904563871532
0.8033730829298046
0.8036692424947464
0.8035747516052142
0.8030227379043944
0.8019901908875745
0.8005002191306129
0.798619793061467
0.7964531942280455
0.794131812293663
0.7918012885012928
0.7896072640939129
0.7876811287348396
0.7861271639719765
0.7850123402332844
0.7843597660946204
0.7841464310512732
0.7843054627464258
0.7847326777033192
0.7852967843297839
0.7858522394539861
0.7862534999040985
0.7863692740879482
0.7860953785287769
0.7853649408697678
0.7841549506062093
0.7824885163139584
0.7804326084209755
0.7780915084751667
0.7755966061398467
0.7730935426579915
0.7707279592725766
0.7686312456469169
0.7669076833289197
0.7656242427465436
0.7648040324756468
0.7644240420115155
0.7644173989973374
0.764679919956348
0.7650803132963804
0.7654730358456039
0.7657125444321844
0.7656675474639558
0.7652338614641547
0.7643446140759672
0.7629767947946805
0.7611535121961531
0.7589417367083426
0.7564457498791574
0.7537969413719113
0.7511409524295809
0.7486234242951405
0.7463757466319079
0.7445022009877862
0.743069757790737
0.7421015256166171
0.741574493960715
0.7414217904662135
0.741539231656355
0.7417955259389659
0.7420451301422194
0.7421425010942814
0.7419563472029826
0.7413824849915639
0.7403540421032085
0.7388480080332046
0.7368874913574096
0.7345394625037848
0.7319082030202331
0.729125102570072
0.7263358023962769
0.7236859437418235
0.721306916270026
0.7193030015287921
0.7177411699460803
0.7166445300977485
0.7159900714790841
0.7157109217332737
0.7157028973835531
0.7158347068377565
0.7159608069240498
0.715935654470603
0.7156279578852469
0.7149335336912196
0.7137855095317077
0.7121608749019974
0.7100827383779468
0.7076180703875156
0.7048711524786089
0.7019733743145447
0.6990703771382957
0.6963078021928389
0.6938170391414894
0.6917023695321525
0.6900307637927895
0.6888253304992569
0.6880630591468425
0.6876770773787302
0.6875632017181622
0.6875901405729644
0.6876123507713106
0.6874842891413662
0.6870746640909626
0.686279292143339
0.6850313009416806
0.6833076799812748
0.681131537837979
0.6785698449397531
0.6757268828345036
0.6727340411855438
0.6697369612358529
0.666881284228403
0.6642983998265118
0.6620925895780845
0.6603308239110802
0.6590362114013569
0.6581857415442032
0.6577125419828027
0.6575124292403941
0.6574541117248104
0.6573920462642179
0.6571806896867863
0.6566887504003465
0.655812044928137
0.6544837009133433
0.6526807078512523
0.6504261743177225
0.647787070740713
0.6448676786681291
0.6417993877632888
0.6387278392691637
0.635798674428734
0.6331432829053106
0.6308659462468026
0.6290336348811686
0.6276694573842663
0.6267504032513831
0.6262096001257045
0.6259428645304689
0.6258189048735059
0.6256921779829875
0.6254171406870801
0.6248625013936144
0.6239240766258299
0.6225349940269115
0.6206722430921467
0.6183589323973925
0.6156620323706107
0.6126858245597054
0.6095616986279911
0.6064352958184468
0.6034522573740443
0.6007439729581017
0.5984147241185238
0.5965314812832705
0.5951173530281992
0.5941493288485982
0.5935605363876519
0.5932467921685993
0.5930768045992708
0.5929050305078365
0.5925859267224624
0.5919882016509828
0.5910076718166332
0.5895774648626011
0.5876745702841728
0.5853220966572069
0.5825870144096614
0.5795736050894442
0.576413258359871
0.573251615463914
0.5702343176445535
0.5674927545651003
0.5651312077734634
0.5632166476976019
0.561772182913373
0.560774802916065
0.5601576353488611
0.5598164967350023
0.5596200954823181
0.5594228884189776
0.5590793323731509
0.5584581357526656
0.5574551150807636
0.556003398000628
0.5540799740075477
0.551707951677379
0.5489543014380837
0.5459233048375648
0.5427463515391402
0.5395690827857854
0.5365371398204737
0.5337819123065234
0.5314076817918378
0.5294814187043784
0.5280262316200026
0.5270191100339974
0.5263931815895491
0.5260442628098938
0.5258410621028647
0.5256380362966299
0.5252896422193585
0.5246645882788814
0.5236586909984358
0.5222050780212084
0.520280738842486
0.517908782038127
0.5151561780360897
0.5121272083842827
0.5089532627460175
0.5057799823642727
0.5027530084820245
0.5000037307625846
0.4976364307538622
0.49571807888381636
0.4942717837283041
0.49327453478261296
0.4926594596899287
0.49232237497349074
0.49213198904112654
0.49194275872100807
0.4916091408413045
0.4909998438098434
0.49001068414986676
0.4885747895045576
0.48666914936920447
0.4843168723196646
0.48158492878389897
0.4785776003098108
0.47542627656071795
0.4722765987795951
0.4692742082094183
0.4665504945135023
0.4642097392397535
0.46231891281613113
0.4609011238184934
0.45993336174212746
0.4593487542302196
0.4590431178060058
0.4588851608773204
0.45872934027232803
0.4584301128192014
0.4578561869257701
0.4569033791152714
0.45550481703089213
0.4536374901679189
0.4513245071022095
0.4486328382617241
0.44566676519436943
0.4425576775634576
0.4394512166119672
0.4364930235828736
0.43381448813949136
0.4315198918297263
0.4296762050815391
0.4283065364707871
0.4273878754927565
0.42685334979063416
0.42659877588765915
0.4264928621916591
0.42639006553080694
0.42614484273326875
0.4256259022068757
0.42472906047486697
0.4233874451804275
0.42157804581884506
0.4193239709659769
0.4166921910497832
0.41378698761817
0.4107397503344509
0.40769612044160514
0.4048017391826055
0.4021879962207676
0.3999591731039979
0.398182240260256
0.3968803062653996
0.3960303606147167
0.3955655309513917
0.3953816337986625
0.3953473775643629
0.3953172190766574
0.39514561516371965
0.39470127423337653
0.39388001280886825
0.39261495853337974
0.3908831009021985
0.3887075484911828
0.3861552717282917
0.3833305521614316
0.38036477945391733
0.37740359484872366
0.37459263958882977
0.37206330333754706
0.3699198676427829
0.3682293029324976
0.36701471778254846
0.36625310168822195
0.36587758229270567
0.365783976119236
0.36584099157564326
0.3659030854900996
0.3658247146907708
0.36547458758548845
0.3647485206974915
0.36357964166996476
0.36194493999819616
0.3598675242580424
0.35741436487746536
0.3546897434043691
0.35182504950206817
0.3489659244135417
0.3462580093817615
0.3438326940700457
0.3417942600262981
0.3402096776784798
0.3391020556024482
0.33844838329349086
0.3381817883947917
0.33819808742959223
0.3383659888057206
0.338539949351345
0.3385744258946383
0.3383381268434274
0.33772686872095253
0.3366737791703986
0.33515584768705303
0.33319618284677355
0.33086175507751925
0.3282568459271987
0.32551284505912403
0.32277539371627106
0.32019013314161904
0.3178884529984789
0.3159746348347594
0.31451564907841895
0.31353460430531593
0.31300849001073683
0.3128704338378686
0.31301625230994845
0.3133146538348073
0.3136200952406141
0.3137870333555371
0.31368417658740944
0.3132073414594672
0.31228965561489685
0.3109081085489851
0.30908580883758946
0.30688972690867156
0.30442414431013476
0.3018204507052971
0.2992242873371319
0.29678129544861515
0.29462286470306404
0.2928532766483818
0.2915395017125304
0.2907046484713666
0.2903257064201778
0.29033580320214847
0.2906307553405204
0.2910792712431205
0.29153580773811943
0.2918548216536858
0.291905021397651
0.29158222349325186
0.29081955558367545
0.2895940071642084
0.2879286868107088
0.2858905649511352
0.28358392313339653
0.28114015102080364
0.2787048898563359
0.2764237808829689
0.2744282137640147
0.2728224700473825
0.2716735201610303
0.2710044726808165
0.2707923171020284
0.27097018106785115
0.27143388110152455
0.2720521256108761
0.2726793714240777
0.27317007536929766
0.27339294585436597
0.27324379940252225
0.27265576365695043
0.27160582811293876
0.2701171013463448
0.26825655378512925
0.26612846697719583
0.2638642305858626
0.2616094858541022
0.25950987402489284
0.25769678476154956
0.25627449961197607
0.25530998900413454
0.2548263615138815
0.2548006066365048
0.2551658520151893
0.25581791417317457
0.25662550151829094
0.2574430708787051
0.25812507908258897
0.25854023453777303
0.2585843537674935
0.2581905644149378
0.25733585597539266
0.2560433370247151
0.25437997799086615
0.2524500604217525
0.2503849739806859
0.24833035991064514
0.2464318594546054
0.24482086227588162
0.24360164992237957
0.24284119282205882
0.24256259955077783
0.24274285960382297
0.24331510062438036
0.24417513913568967
0.24519168354557785
0.2462191906822188
0.2471121173737764
0.24773917202808504
0.2479961711683827
0.24781624243785316
0.24717637533178488
0.2460996784260353
0.24465312214856455
0.24294098804727843
0.24109466578549318
0.23925979660618135
0.23758202175232182
0.23619273088722878
0.23519620555880785
0.23465941619501918
0.23460547137172053
0.23501136058419958
0.2358102114756398
0.2368978405692821
0.23814295627295712
0.23940001541483089
0.2405234748230764
0.24138204290552046
0.24187153618540438
0.24192508230591256
0.24151967076233255
0.24067841013052108
0.23946827083843936
0.2379935344339928
0.23638559058049655
0.23479008052092726
0.23335264549825782
0.2322046751758063
0.23145045110147766
0.23115694370323173
0.23134726155692656
0.23199839415784831
0.23304346914918453
0.23437830305417073
0.23587160428064005
0.23737782965676202
0.23875143601070214
0.23986113175029472
0.24060273339877583
0.24090936859933207
0.24099363135536006
0.2411099273812797
0.24131876605072616
0.2417179678572849
0.2424324614099475
0.24360142689736733
0.24536404450819674
0.24784524285143064
0.2511428424206498
0.2553173525894925
0.2603854208794936
0.26631757573161857
0.2730404837347282
0.2804435003577418
0.2883888729541642
0.29672459729784195
0.30529866916262444
0.3139733359020159
0.3226379529849354
0.3312191870002436
0.3396875663889063
0.34805973867245815
0.3563962132245356
0.3647948105387248
0.3733804592240156
0.3822923394690617
0.3916696314625168
0.4016372638133723
0.41229305701521374
0.42369752044167625
0.43586730161429593
0.4487729289740366
0.4623410691097628
0.4764610774903878
0.4909952014694231
0.5057914368207121
0.5206977793181014
0.5355764763151014
0.5503168832806256
0.5648456668035376
0.5791333553248024
0.5931965963659548
0.607095899300632
0.6209290846224167
0.6348210809403041
0.6489110684429444
0.663338227318991
0.6782274861774388
0.6936766655118682
0.7097462746959186
0.7264529612511242
0.74376725361845
0.7616158183867572
0.7798880110249652
0.7984460788865791
0.8171380177454459
0.8358118233754124
0.8543297431299852
0.8725811324780833
0.8904926580085666
0.908034848162401
0.9252243504611217
0.9421216742783647
0.9588246401077162
0.9754581765581647
0.9921614638183676
1.009073682076975
1.0263197599429799
1.0439975179099672
1.0621674653515722
1.0808462497893314
1.100004399664209
1.1195685815650676
1.1394281509608222
1.1594453552049844
1.179468190071397
1.199344651333907
1.218936986346023
1.2381345505766612
1.2568640106146836
1.2750958949010553
1.2928468509573117
1.3101773881570893
1.3271853269939717
1.3439955960769532
1.3607473755946833
1.377579845735819
1.394617935109351
1.411959464208862
1.4296649424079904
1.4477510172282708
1.466188217110668
1.4849032086440441
1.5037853472973166
1.522696880423993
1.5414858037979176
1.5600001131929393
1.578102055962565
1.5956809875757112
1.6126635746212405
1.6290203455401178
1.6447679478538768
1.659966890936156
1.6747149952805405
1.6891371894960185
1.7033726537712475
1.7175605682948771
1.7318258616759024
1.746266354407907
1.7609425558645246
1.775871113567294
1.7910225559571784
1.8063235496230408
1.821663450033797
1.8369045045429544
1.8518947089243618
1.8664820589518618
1.8805288019789654
1.8939242934745875
1.9065952000275912
1.9185120500789405
1.9296914911501715
1.94019403261492
1.9501174949667714
1.9595868068147175
1.9687411483474089
1.9777196997535031
1.9866473896419892
1.9956220385064531
2.004704155720529
2.0139103888057552
2.0232112662030945
2.0325334545014098
2.0417663091696165
2.0507720775612257
2.059398755450079
2.067494338610028
2.074921074394576
2.0815683182726414
2.087362736833087
2.0922748585168773
2.0963213308455453
2.0995626631927333
2.1020966760520183
2.104048298032398
2.1055567093225234
2.1067610901110467
2.1077863690069614
2.1087303665038526
2.109653591975355
2.110572692943005
2.1114581978477664
2.112417428908041
2.1135254458105566
2.114652068791238
2.115652866506347
2.116383407612141
2.116713512344547
2.116540109054892
2.115797437214457
2.114463598146619
2.11256281225533
2.1101631617966388
2.107370040146547
2.1043159487964593
2.101147640817445
2.098011869280572
2.095041135677247
2.0923408333834677
2.089979044655287
2.0879799898966542
2.08632177043095
2.084938625729449
2.0837274841434863
2.08255816590898
2.081286239682194
2.0797672741193898
2.0778710894564876
2.0754946140448207
2.0725720873556654
2.069081610712401
2.0650474045189777
2.0605375510314485
2.0556574436258086
2.050539583793469
2.0453307246054946
2.0401776191329555
2.0352127688672565
2.0305415671844
2.0262320963404328
2.0223085767393076
2.018749109704404
2.015487934706999
2.0124219800984213
2.009421066114599
2.006340761411787
2.0030366346462496
1.9993785060539098
1.9952633039860974
1.99062526791409
1.985442499161268
1.9797392181315794
1.9735835070810785
1.9670807593857602
1.9603634765370366
1.9535784116059716
1.9468723176636344
1.9403776962014319
1.9341999405953625
1.9284071331014785
1.9230234941237294
1.918027124985495
1.9133522651580515
1.908895842992732
1.9045276787254564
1.9001033410124886
1.895478398510088
1.8905226714541772
1.8851330881960882
1.8792438882070976
1.8728331728105847
1.8659251624105004
1.8585879392628954
1.850926896743769
1.8430745363445267
1.8351776111362397
1.8273828741899727
1.8198228269971337
1.812602862933722
1.8057910642557888
1.7994116513672833
1.7934427255915861
1.7878185263999746
1.782435982143778
1.7771649130589215
1.7718608878016635
1.7663794750282682
1.7605904949746558
1.7543908759921572
1.747714857552052
1.740540540977717
1.7328921466731044
1.7248377568942643
1.716482765017197
1.707959672533307
1.699415232513663
1.6909961980293362
1.6828350705717294
1.6750372435168428
1.667670799120728
1.6607599577873355
1.6542828208400433
1.648173627750131
1.6423293068689278
1.636619678432356
1.6309003110966789
1.6250267735181556
1.6188688859327087
1.6123235766916708
1.6053250852663177
1.5978515129800301
1.5899270802367567
1.5816198692925505
1.5730352735234088
1.5643057944207388
1.5555781850556099
1.546999198499088
1.5387013362425828
1.53078999166209
1.523333247013662
1.5163553227012498
1.5098343200482325
1.503704478525887
1.4978627264855444
1.4921788841631276
1.4865085202148958
1.4807072032971151
1.4746447536457028
1.4682180996119927
1.4613614806672606
1.4540529981348869
1.4463168724188222
1.4382211857751173
1.4298713315797709
1.42139981132419
1.4129533780794412
1.4046787849165963
1.396708533327058
1.3891480166868269
1.3820653172519555
1.3754846554263915
1.369384132533516
1.3636979880446065
1.358323150310993
1.3531294395685982
1.3479724244736841
1.3427076736825114
1.3372050074310016
1.3313613540704872
1.3251109530722454
1.3184319057596545
1.3113484325366656
1.3039286156593308
1.2962778485036468
1.2885286325610221
1.2808277209025254
1.2733218665992219
1.266143571142522
1.2593982279084206
1.2531539191529726
1.2474348652801257
1.2422191676132608
1.237441065623655
1.2329974876626382
1.2287582539661348
1.224578933190404
1.220315093991709
1.2158365566059708
1.2110402493845203
1.2058604117986358
1.2002751451716966
1.1943086699076526
1.1880290682625552
1.1815417336124037
1.174979167448603
1.1684881228422235
1.1622153528643335
1.156293359006337
1.150827534644235
1.145885962034078
1.1414928615798172
1.1376263346048299
1.1342206205803969
1.131172647857847
1.1283522366731014
1.1256149556824229
1.122816373542074
1.119826310487974
1.1165416948714575
1.1128967661637983
1.108869625688379
1.1044844938491465
1.0998094529021563
1.0949498962234032
1.0900383253042967
1.0852214932159034
1.0806461530292923
1.0764448062358707
1.072722846211634
1.0695483552126384
1.0669455536428305
1.064892542825591
1.0633235622321984
1.0621355402139803
1.0611982970068632
1.0603674012671052
1.0594984216509693
1.0584611783943783
1.0571525998486606
1.0555069254850973
1.0535022566270646
1.051162813678515
1.0485566788954974
1.0457892456540143
1.0429930154454674
1.0403147413409293
1.037901176411466
1.0358848221484858
1.0343710719279853
1.033428008006017
1.0330798507865306
1.0333047015929067
1.0340367998964213
1.0351509163770511
1.0364915544513857
1.0379095440537311
1.0392557151183845
1.0403951491593113
1.0412200358058823
1.041659875807415
1.0416880317653285
1.0413239853616136
1.0406310801303635
1.039709970725614
1.038688419916816
1.0377084420530736
1.0369120514834986
1.0364270109775369
1.0363539751892272
1.0367562876526617
1.0376534300498303
1.0390187649821527
1.0407817931989474
1.0428347043295847
1.0450425798880287
1.0472562498085778
1.0493265440255377
1.051118544052868
1.0525244395199405
1.053473731176074
1.0539397816226876
1.0539420725417707
1.0535439474674166
1.0528460610536639
1.0519761760699595
1.0510763068654099
1.050288467789128
1.049740421610557
1.0495328229837362
1.0497290154427588
1.0503484806696144
1.0513645812657217
1.0527068179804004
1.0542673804430218
1.0559113501675452
1.0574895570882765
1.0588528311395138
1.0598662538352226
1.0604220148047718
1.0604496147974802
1.0599224164147676
1.0588599013386235
1.0573624841351732
1.0555703193987684
1.053614813261278
1.0516416234342327
1.0497964076291615
1.0482105719779364
1.0469884144970156
1.0461969220829128
1.0458592197800418
1.0459523135522437
1.0464093475112566
1.047126154648876
1.047971459841486
1.0487997363858075
1.0494654575785685
1.0498373482961494
1.049811241530345
1.0493202813928955
1.048341473847642
1.0468979439389965
1.0450566785634734
1.0429219757375328
1.0406252415930441
1.0383121338415364
1.0361283101945438
1.0342051767839306
1.0326470316261607
1.0315208616177465
1.030849791803101
1.0306108281460642
1.0307371147583784
1.0311244846318344
1.0316416626428178
1.0321431220880521
1.0324833362642594
1.0325310300478274
1.032182036430547
1.0313694995241576
1.030070425292502
1.0283079387799905
1.0261490268831404
1.0236979876184094
1.0210862271176677
1.0184594030924452
1.0159631732542718
1.0137289437350185
1.011861012551144
1.0104263665991629
1.0094481309234868
1.0089033114879589
1.0087250524043165
1.0088091866643558
1.0090244391444585
1.009225283141349
1.0092661919517512
1.00901589045205
1.0083702116340372
1.0072622996094536
1.0056691603421406
1.0036139188765103
1.001163562109076
0.9984223880563007
0.9955218028500509
0.9926074642018564
0.989825029823251
0.9873059058461003
0.985154390286867
0.983437470042064
0.9821782701561039
0.9813537965928276
0.9808971934639764
0.9807042937613408
0.9806438223617421
0.980570252572292
0.9803380577100653
0.97981596267223
0.9788998004713625
0.9775227152399844
0.9756617129627221
0.9733399187047697
0.9706243193834249
0.9676192130359302
0.9644560058149412
0.9612803554527667
0.9582379196817234
0.9554601046544635
0.9530512084082287
0.9510782178603175
0.9495642580759248
0.9484863350396757
0.9477775928840916
0.9473338646217518
0.9470238751498213
0.9467020977858074
0.9462230058472171
0.9454553242312176
0.9442948859503856
0.9426748351372439
0.9405721777764172
0.938010038933101
0.9350554055245908
0.9318125755881338
0.9284129552763781
0.9250022023216411
0.9217259744562322
0.918715677832807
0.916075610488608
0.9138727593409319
0.9121302494549742
0.9108250868153601
0.909890415554612
0.9092220686853049
0.9086887711046102
0.9081449961300322
0.9074452170790753
0.9064581588489107
0.9050796544521136
0.9032428480212058
0.9009247455408134
0.8981484720761315
0.8949810145444566
0.8915266709830318
0.8879168475445122
0.8842972019612073
0.8808133919654333
0.8775968237098417
0.8747517952316766
0.8723452934482342
0.8704004434247101
0.8688942511457295
0.8677598607438147
0.8668931052315425
0.866162709506081
0.8654231468849339
0.8645288906856125
0.8633486658052799
0.8617783052565154
0.8597509531718412
0.8572436155358818
0.8542794174138321
0.8509253457229897
0.8472856985005992
0.8434918818993103
0.8396895536514399
0.8360243714892973
0.8326277415655385
0.8296039619174052
0.8270200194621953
0.8248990392651038
0.8232180273107548
0.821910127731672
0.8208711735404315
0.8199698896342009
0.8190607493304879
0.8179982259467959
0.8166510443802968
0.8149150376435637
0.8127233498691205
0.8100529870415925
0.8069270742261747
0.8034125983401631
0.7996138574208032
0.7956622576207473
0.7917034566723059
0.7878831123077945
0.7843326306798671
0.7811563098257649
0.7784211366627855
0.7761502362561244
0.774320614590407
0.772865415798154
0.7716804728919442
0.7706345107689448
0.7695820027466601
0.7683774221426005
0.7668894938539299
0.7650140508932274
0.7626842373930147
0.7598770593379167
0.7566156417931281
0.752966971675947
0.7490353470236166
0.7449521739887893
0.7408631103037786
0.7369138137008978
0.7332356903327983
0.729933038236726
0.7270728443299759
0.7246782336777444
0.7227262122646552
0.7211499242232329
0.7198452025660508
0.7186807721902796
0.7175111064134259
0.716190678552993
0.7145882135061529
0.7125995442854782
0.7101578150234942
0.7072400317048244
0.7038693193946652
0.7001126650103119
0.6960743665890099
0.6918858302834108
0.6876927138258283
0.6836406749485754
0.6798611198043046
0.6764583464302591
0.6734993417437372
0.6710072308099332
0.6689590196134725
0.6672878522868763
0.6658895618427236
0.664632873178179
0.6633722596107515
0.6619621944579482
0.6602714026169333
0.6581957171002871
0.65566828204053
0.6526661034222874
0.6492123063107544
0.6453738776232295
0.6412551153969535
0.6369874257845812
0.6327164665184252
0.628587895330799
0.624733118374354
0.621256433686336
0.61822482818404
0.6156614269326622
0.6135432359168272
0.6118033992690587
0.6103377500019302
0.6090150130126136
0.6076896616186122
0.6062161691374336
0.6044632604662452
0.6023267686176237
0.5997398377240926
0.5966794737702756
0.5931688018213683
0.5892748087946678
0.5851017927274171
0.5807811597722712
0.5764585676615404
0.5722796741275393
0.56837588532292
0.5648514992849258
0.5617735029308552
0.5591650213259025
0.5570030604546926
0.5552207644497472
0.5537139663236452
0.552351390973551
0.5509875117169752
0.549476801871421
0.5476879863340571
0.5455168981174602
0.5428966813541529
0.5398043420287602
0.5362630052064767
0.5323396578046002
0.5281385978603745
0.5237912315264502
0.5194432165351444
0.515240210618767
0.5113136199299706
0.507767742506001
0.5046695652641533
0.5020422132696236
0.49986269250703746
0.4980641471089161
0.4965424100878354
0.4951662063409665
0.49379000918581245
0.4922682919398812
0.4904697795003401
0.48829030487976616
0.48566301221068164
0.4825649074777112
0.4790191157460507
0.4750926239329969
0.4708897300757925
0.4665418403270928
0.46219461241920706
0.4579937040844527
0.4540705214754786
0.4505293626295307
0.44743721446390533
0.44481720204379793
0.4426463313538331
0.44085774652653353
0.4393472805744757
0.437983658394826
0.4366213533050948
0.435114838622785
0.4333328392450654
0.4311711881845128
0.4285630295736495
0.4254853693971005
0.4219613327200604
0.41805790645982827
0.41387938865364576
0.40955718545416486
0.40523695459370196
0.40106435380456656
0.39717078923941396
0.39366055893548657
0.39060064981008197
0.3880141869283944
0.3858781762750503
0.384125761982571
0.38265277706353334
0.38132794641510503
0.38000574335479376
0.37854064120010306
0.3768013648482042
0.37468374731167065
0.37212093272302726
0.36908992706689775
0.36561385540847813
0.36175970466506413
0.3576317728739021
0.35336146618764175
0.34909444233859616
0.3449763590590818
0.3411386225017475
0.3376855307038392
0.3346840705826535
0.33215736720338546
0.33008242655065917
0.3283923927569994
0.32698309883498056
0.32572326968177084
0.3244673786148772
0.3230698989518069
0.3213995555897249
0.31935218154121087
0.31686092093878565
0.31390277976707476
0.31050088309127244
0.30672221782867787
0.30267108201653203
0.29847888180748966
0.294291274933864
0.29025391912796555
0.2864982205424505
0.2831284772145593
0.2802116760615913
0.27777094214874065
0.27578328146063225
0.2741818381297903
0.27286244516878777
0.27169382747479537
0.2705304583653188
0.26922681115786484
0.2676516107496015
0.2657006901531034
0.26330719350089504
0.2604481267776009
0.2571466150484162
0.25346964523063703
0.24952151536150968
0.24543363159368262
0.24135165165947237
0.23742123329119236
0.23377378264149193
0.2305135977476172
0.2277076655268655
0.22537911104443092
0.22350494028493875
0.22201829738091153
0.22081501534492687
0.2197638190741492
0.21871918188608847
0.21753557709825094
0.21608172960780153
0.21425347242732
0.21198394968932702
0.20925016737844793
0.2060752505598781
0.20252618615091544
0.19870727218880127
0.19474991482619045
0.19079977179539506
0.18700250082872905
0.18348950807884426
0.18036509158298464
0.17769623825844727
0.17550607317042718
0.17377160230354952
0.17242596979033775
0.17136500864336546
0.1704574437598041
0.16955774845715665
0.16852039605293234
0.16721411144429874
0.1655347276438301
0.16341538878405146
0.16083310084958627
0.1578109889056301
0.1544160398694806
0.15075255177838198
0.14695193078498373
0.14315983462160192
0.13952192102054917
0.13616959613447788
0.13320715800063113
0.13070159353630728
0.12867602780670062
0.12710746679643567
0.12592905463803603
0.12503662434407856
0.12429890081172802
0.12357035735849524
0.12270546730188348
0.12157295553906101
0.1200686550826061
0.11812571006503958
0.11572112647098676
0.11287802936564309
0.10966340566630571
0.10618155341021823
0.10256387875003196
0.09895603941806322
0.09550369314662255
0.09233824608836312
0.08956399628052844
0.08724793064041601
0.08541317423322078
0.08403673304356832
0.08305175120398046
0.0823540617270325
0.08181238950989547
0.08128120787007181
0.0806149901250723
0.07968246117206178
0.07837945402361737
0.07663911281226164
0.07443844352261975
0.07180057121988725
0.06879248282136084
0.06551847636428396
0.06210995800130933
0.058712585464749285
0.05547201648692009
0.05251965722047107
0.0499598057026464
0.047859448850744515
0.04624171172995989
0.04508360032491643
0.044318258768139177
0.04384152007220219
0.04352210913427296
0.04321449927186141
0.042773163802469705
0.04206682762326988
0.040991323746835256
0.03947979630568925
0.03750925128445684
0.035102813748333114
0.0323274706146162
0.02928751992054899
0.026114367818783527
0.02295367204163374
0.019951090321411607
0.017238028810772275
0.014918785546956803
0.01306034744726316
0.011685839576886889
0.010772267920453256
0.010252776610482968
0.010023198659555645
0.009952258964835821
0.009894430843830201
0.009704187614049007
0.009250254172656491
0.008428463532229733
0.007171959825292212
0.005457749036467913
0.0033089562309525406
0.0007925683260425484
-0.001987116641016592
-0.004898692517574134
-0.0077965015713174326
-0.010534886069929831
-0.012982439860763263
-0.015034864906570604
-0.016625174290056905
-0.017730242946025654
-0.018373064889853012
-0.018620495989014874
-0.018576703230935895
-0.018372961718448665
-0.018154798134046114
-0.01806773916022248
-0.0182430598998077
-0.018784927340227103
-0.019760197348958522
-0.021191863941375975
-0.023056802052285753
-0.025288024764387892
-0.027781234040442155
-0.030405023727792455
-0.03301373609412866
-0.03546171340713711
-0.037617549514162844
-0.03937694637796514
-0.04067291708124526
-0.04148233655880809
-0.0418281988260288
-0.04177735975038679
-0.041433986319301654
-0.04092935363560865
-0.04040898838180045
-0.04001841724037086
-0.03988891531415031
-0.0401246495905658
-0.040792475937091704
-0.04191538836910404
-0.04347026182140796
-0.0453901093767066
-0.0475706329977545
-0.04988042653190197
-0.05217383224683357
-0.05430519241023525
-0.05614310086945784
-0.05758325958725464
-0.058558681646330935
-0.05904624198148954
-0.0590689346081062
-0.058693615393658714
-0.058024451325569416
-0.05719271750667381
-0.056343940619461456
-0.05562364734642742
-0.05516311279040406
-0.055066503938814834
-0.05540067665913728
-0.05618862496674653
-0.057407223796446576
-0.0589894862309408
-0.06083111423298655
-0.06280070164992912
-0.06475259074945827
-0.06654112379925749
-0.06803489464667578
-0.06912960525447032
-0.06975826870534338
-0.06989775993409926
-0.06957107295611309
-0.06884506363886296
-0.06782389896977196
-0.06663885405167096
-0.0654354555670579
-0.06435923019842157
-0.06339592268420434
-0.06250667330102924
-0.061762093396753925
-0.061188932467136706
-0.06076782092736543
-0.0604355273405242
-0.06009150914975108
-0.05960811568277941
-0.058843444687674974
-0.057655593912507845
-0.05591691268500821
-0.05352685844831451
-0.050422199765512904
-0.04658356705178927
-0.04203770980290257
-0.03685523936671147
-0.031144078211021265
-0.025039256919049735
-0.018690057653668553
-0.01224576257775771
-0.005841402274528698
0.00041510078821173097
0.006453135262602879
0.012245951652887811
0.017812919543880014
0.023217270372492382
0.0285595466955881
0.03396739918543742
0.03958273009396811
0.04554744167311448
0.05198918459514519
0.0590085014169215
0.06666862357535826
0.07498892065526822
0.08394264316089445
0.09345917974437537
0.1034306079379068
0.11372189715827463
0.12418376524259975
0.13466693002801053
0.1450363609312884
0.15518413548463014
0.16503964234017524
0.17457613200216596
0.18381297405541447
0.1928133999368366
0.2016779522032934
0.21053428152705447
0.21952429016005204
0.22878988035421394
0.23845870278181314
0.24863129999970981
0.2593709034448187
0.2706968827019531
0.28258248827535426
0.29495710881716447
0.30771282185957466
0.32071459681937303
0.3338131515336837
0.3468592038396278
0.3597177231539944
0.372280787008975
0.3844777840567106
0.3962819648014438
0.4077126988279879
0.41883321757325603
0.42974406359411116
0.4405728875628224
0.45146159173132117
0.4625520783515372
0.4739719980957432
0.4858218935207974
0.498164996063616
0.5110206753090114
0.5243621817612267
0.5381189040724007
0.55218291977473
0.5664191982849972
0.5806784574403265
0.5948114150778454
0.608683040614335
0.6221854115819925
0.6352479166329564
0.6478438062714698
0.6599924500823454
0.671757079502497
0.683238237088789
0.6945635735134877
0.7058749910285261
0.7173143918858345
0.7290094267576819
0.741060638200932
0.7535312576524975
0.766440654697192
0.7797620798392572
0.793424921730835
0.8073212579041166
0.8213160577758913
0.83526003918328
0.8490039199634067
0.86241266953306
0.8753783654244308
0.8878303962896604
0.8997420126329914
0.9111325840392362
0.9220653419453103
0.9326408289080731
0.9429866955997982
0.9532448442724131
0.9635571771778491
0.9740513449883789
0.9848278902608603
0.9959500444322106
1.0074371770872408
1.0192625387301955
1.0313555180132117
1.043608192468487
1.055885531512804
1.0680382529832881
1.0799170747170637
1.0913869661309141
1.1023400047570369
1.1127055792475702
1.1224569401067555
1.1316134569194074
1.140238361122439
1.1484321952727146
1.1563226100424997
1.1640515076837297
1.171760790448333
1.1795781090085793
1.1876040059213313
1.1959017126235023
1.2044905986999075
1.213343914654786
1.2223910491402807
1.2315240796885836
1.2406079757164827
1.2494934550610999
1.25803123555956
1.2660862866286486
1.2735506858005592
1.2803538217274322
1.2864689449135098
1.2919154249436062
1.2967564932546345
1.3010926924034558
1.3050516730623432
1.308775337483223
1.3124055879180303
1.3160700750390322
1.3198693414030913
1.3238666184471215
1.328081275755937
1.3324865638337793
1.3370118713327883
1.3415492757851586
1.3459637466076737
1.3501060016374629
1.353826758711645
1.3569909872470074
1.3594907647757442
1.361255479949995
1.3622583832740027
1.3625188443325789
1.3621000945626416
1.3611026765210499
1.3597566331140372
1.358309370761642
1.356907459616999
1.3556832182535878
1.3547418571294767
1.3541512755827867
1.3539355110995381
1.354072482085182
1.3544962450930647
1.3551035455565879
1.3557640207937445
1.3563330565428668
1.356666038542283
1.3566326041099896
1.356129498679386
1.355090778803821
1.3534943628887426
1.351364288420173
1.348768454736232
1.34581207229499
1.3426274596699252
1.3393611870141724
1.3361598244808741
1.3331556906435031
1.3304539959601316
1.3281226397688808
1.3261856595557697
1.3246209737262493
1.3233626388336666
1.322307400311423
1.3213248954775112
1.3202705100702632
1.3189996298280104
1.3173818920687435
1.3153140422258665
1.3127301368527262
1.3096080943547719
1.3059719522180233
1.3018896097806045
1.2974662775005816
1.2928342739514336
1.2881401692862997
1.2835305336583147
1.2791376856409589
1.2750668356922994
1.2713858831504592
1.2681188655014581
1.265243701150746
1.2626944466516716
1.2603678474376325
1.2581335408266252
1.2558469125569809
1.2533633483670281
1.250552485574763
1.2473110696135838
1.2435731570368411
1.2393166662499824
1.2345656347390295
1.2293879618421026
1.2238888580172722
1.218200641838015
1.212469883457469
1.2068431530287733
1.201452769125403
1.1964039422054293
1.1917645716069727
1.1875586948160541
1.1837642302381235
1.1803152344265266
1.1771084528146674
1.174013522720536
1.170885829882466
1.1675807600387889
1.163967950507495
1.1599441467219882
1.155443405235615
1.1504436444538253
1.1449689018626388
1.139087076800179
1.1329033797245125
1.126550129209118
1.1201738954071336
1.1139212484716976
1.1079245069762862
1.1022888813789704
1.09708227101787
1.0923287133790063
1.088006126867828
1.0840485680376848
1.080352782321975
1.0767884070386946
1.0732108279261723
1.0694754307227397
1.0654518527463925
1.061036839430529
1.056164447328498
1.050812594845749
1.0450053194683029
1.0388105205342801
1.0323334085017501
1.0257063019441925
1.0190757710147424
1.012588385866539
1.0063764650730596
1.0005452190923727
0.9951625472626014
0.9902524870697647
0.9857929569193128
0.9817180133645924
0.9779244018390075
0.9742817596605468
0.9706454725675462
0.9668709262983336
0.9628277581709025
0.9584127136186558
0.9535598491949397
0.9482470833052045
0.9424984534354699
0.9363818589238585
0.9300025102284389
0.9234927259226868
0.9169990761597442
0.9106681310927461
0.9046322092951707
0.8989965212250868
0.8938289662206159
0.8891535817677789
0.8849482862720252
0.8811471362867032
0.8776468772452118
0.8743171464655476
0.8710133296860376
0.8675908126450175
0.8639192326604769
0.8598953351658183
0.8554531767143899
0.8505706757116405
0.8452718696435907
0.8396246578483625
0.8337342507840247
0.8277329670240546
0.8217673767215887
0.8159840500297695
0.8105153055220704
0.8054663536565609
0.8009050937713639
0.7968555633524994
0.7932956808054161
0.7901595026834627
0.7873437744200414
0.7847181333331417
0.7821379651610991
0.779458655642242
0.7765498420945642
0.7733082699514673
0.7696679957662982
0.7656069379445073
0.7611491339721147
0.7563624831872421
0.7513521960479588
0.7462505911277402
0.7412042385797284
0.7363597085570573
0.731849319633208
0.7277782822662462
0.7242144957942951
0.7211819977033749
0.7186587063989359
0.7165786784343248
0.7148386592429431
0.7133082861427836
0.7118429448721766
0.710298021169457
0.7085431523526144
0.7064750838550509
0.7040278722301143
0.7011794358832542
0.6979538123004914
0.6944189008199473
0.6906799118996906
0.6868691641131986
0.683133227613609
0.6796186725540623
0.6764578175080326
0.6737558729335908
0.6715807381688589
0.669956450699856
0.6688609289320318
0.6682282294187357
0.667955097593367
0.6679111707739193
0.6679518346987238
0.6679324751061132
0.6677227293140772
0.6672193427560201
0.6663563719852881
0.6651117354073316
0.66350947050817
0.6616174766259272
0.6595409642186689
0.6574122518598748
0.6553779097026837
0.6535845079002303
0.652164365025996
0.651222691538046
0.6508273867745051
0.6510024882213917
0.6517259142841567
0.6529317215161468
0.6545166553507638
0.6563486821862453
0.6582780586375965
0.6601549831377904
0.6618439056994623
0.6632363844506527
0.6642612886393535
0.6648913493656553
0.6651454168102204
0.6650862030058113
0.6648137311051413
0.6644551323763254
0.6641517896671466
0.6640450858253852
0.6642621521191573
0.6649030117011757
0.6660303766042038
0.667663097008903
0.6697739040153645
0.6722916668715794
0.675107943705589
0.6780871845300281
0.6810795877778703
0.6839353518820895
0.6865189268553173
0.6887218708256003
0.6904730530409257
0.6917452046013859
0.6925571756876419
0.6929716783324595
0.6930887356885461
0.6930354790240243
0.69295329118667
0.6929835550242667
0.6932534018049326
0.6938628546813762
0.6948746256863635
0.6963075650005555
0.6981344037240438
0.700284011104817
0.7026479452709204
0.7050906562349873
0.7074623424299883
0.7096132022889
0.7114076858243567
0.712737351164399
0.7135310675570186
0.7137615661023061
0.7134855500286731
0.7128064441720287
0.7118285613181794
0.7106833223683353
0.7095163998033734
0.7084734661041672
0.7076859421719294
0.7072581407924651
0.7072570636316314
0.7077058505031854
0.7085815221403122
0.709817237424096
0.7113088441156741
0.7129250818607729
0.7145204387254638
0.7159494027758098
0.7170807136575431
0.7178102191317998
0.7180710780796628
0.7178403112343185
0.7171410584095225
0.7160403212711342
0.7146424126049556
0.7130787533122035
0.7114950158737477
0.710036872770466
0.7088357449035704
0.7079959450588655
0.7075844749022093
0.7076244742473577
0.7080929638274968
0.7089231025237097
0.7100107380971341
0.7112246101934995
0.7124192068788702
0.7134490162193174
0.7141827778605674
0.7145163395637576
0.7143828602099728
0.713759360532398
0.7126689803447888
0.7111787213130037
0.7093928962228488
0.7074429259755336
0.7054744830519347
0.7036332399329281
0.7020506175197241
0.7008309285981281
0.7000411748339984
0.6997044960410912
0.6997979129525913
0.7002545844495832
0.700970358293205
0.7018139741291822
0.7026399200235862
0.7033026840424808
0.7036710058315977
0.7036407331520719
0.7031450248849881
0.7021609017635317
0.7007115036014588
0.6988638320646278
0.696722199938843
0.6944180281253174
0.6920969891049253
0.6899047553585405
0.6879727477873784
0.6864052791772409
0.6852693511939871
0.684588103651373
0.6843385572825849
0.6844538709687046
0.6848298924708711
0.6853353614348136
0.6858247659265965
0.6861525940122909
0.6861875853376229
0.6858255876637305
0.6849997598716971
0.6836871226947094
0.6819108159465218
0.6797378412929939
0.6772725115199294
0.6746462475285419
0.6720047217997043
0.6694936068142943
0.6672443234735209
0.6653611845631922
0.6639111917491635
0.6629174848451926
0.6623570845844639
0.6621631498480627
0.6622315283971246
0.6624309598773779
0.662615932354893
0.6626409338957332
0.6623747041456312
0.6617130908657214
0.6605892529370883
0.6589802110929176
0.6569091051469648
0.6544429367650899
0.6516860187330955
0.6487697719521954
0.6458398689032637
0.6430419820671741
0.6405075323451421
0.6383408325229696
0.6366088842665162
0.635334827389537
0.6344956826252189
0.6340246088546434
0.6338174538389508
0.6337429572238673
0.6336556070754609
0.6334098914597992
0.6328745500226102
0.6319454305250329
0.6305556918481493
0.6286823547251457
0.626348558969778
0.6236213062479035
0.6206049093453293
0.6174307891632661
0.6142446181825887
0.6111920688841719
0.6084045621692277
0.6059864108235626
0.604004616513033
0.6024823190513958
0.6013965391718358
0.6006804357554385
0.600229856563338
0.5999135412412671
0.5995859778552897
0.5991016544714743
0.59832931073555
0.597164794408654
0.5955412643718688
0.5934357413583818
0.5908713651819478
0.5879151375084257
0.5846713711236183
0.5812714869287424
0.5778611574046678
0.574586055032272
0.5715776007127681
0.5689401072319582
0.5667405762557024
0.5650021475977564
0.5637018419913055
0.5627728183174328
0.5621109243372775
0.5615848996965664
0.5610492324613675
0.5603584106977482
0.5593811740514371
0.5580133702835717
0.5561881582752353
0.5538825587596138
0.5511197115504634
0.5479666183136408
0.5445275918349537
0.5409340530156111
0.5373316743364918
0.5338661282784658
0.5306688357427491
0.5278441095151457
0.5254589512615127
0.523536500795607
0.522053778850614
0.5209439443076175
0.5201028449277535
0.5193992203567537
0.5186875586606825
0.5178223479056085
0.5166723277372604
0.5151333459167755
0.5131385613252365
0.5106649946958298
0.5077357858423124
0.5044179364305411
0.5008157592463196
0.49706067519086433
0.49329835674504524
0.4896744763897403
0.4863204550261611
0.4833406054401122
0.48080192929745197
0.4787275664119361
0.47709453751675046
0.4758360014929787
0.47484780610175803
0.4739986909888181
0.4731431442202232
0.47213565386204465
0.4708449595600079
0.46916690907525227
0.4670346612888609
0.46442523693401927
0.4613617758244828
0.4579112796261109
0.4541780611247083
0.4502935412214855
0.4464033923973206
0.44265328713308383
0.4391746463299916
0.43607178277384706
0.43341169813050845
0.4312175322137323
0.4294663057567031
0.4280911776405056
0.4269879956262765
0.42602549935974465
0.4250581769069786
0.42394051633404245
0.4225412572866686
0.42075624752599194
0.4185186459330967
0.4158054732411688
0.41263986926396484
0.40908883566734106
0.4052566852371041
0.4012748388744672
0.39728896906030164
0.3934447482754838
0.3898735974212286
0.38667982928333794
0.3839304455276705
0.38164858596798285
0.3798112713374607
0.37835166051718616
0.37716560126829823
0.37612183323652615
0.3750748444879338
0.3738791230885931
0.37240340868422894
0.37054354903598147
0.3682327030249322
0.3654478913842681
0.3622122539277441
0.35859279232122027
0.35469381935049815
0.35064675591679345
0.3465972745009809
0.3426910475839311
0.33905949606686014
0.3358069327355732
0.3330003592559266
0.33066291544167675
0.3287716220260096
0.32725963789000967
0.3260228107948114
0.3249298803861463
0.3238353347300816
0.322593661892682
0.3210736015196797
0.31917100137220905
0.31681902033135556
0.31399467913030404
0.3107211175828113
0.30706533735473385
0.3031316512318778
0.299051480115456
0.2949704964863423
0.2910343728254113
0.28737453003387614
0.28409528089754077
0.2812636270822645
0.2789027084018023
0.2769895455893407
0.2754572975259617
0.2742018119728053
0.27309182857559644
0.2719818354004057
0.27072632051330037
0.2691940235600065
0.2672807923016641
0.26491978561935514
0.26208802424626587
0.25880864799615233
0.25514865853487356
0.2512123686482313
0.2471311992374415
0.2430508227833776
0.23911691176691363
0.23546088708926227
0.2321870615362299
0.2293624367736727
0.22701015261534743
0.22510722979443973
0.2235868271920339
0.22234479256926507
0.22124986557186516
0.22015653426589862
0.21891928671743419
0.2174068625722001
0.21551510959133358
0.2131771866559191
0.21037011449914142
0.2071170329347572
0.20348494362862407
0.19957815936654583
0.1955281010497386
0.19148044115907356
0.18758085217542633
0.18396075500000936
0.18072446241862744
0.17793897609713955
0.1756274358493009
0.17376686240829733
0.17229041465521133
0.17109394035118317
0.17004617914193734
0.16900161909354552
0.16781474827207216
0.16635430632324688
0.16451614100820697
0.16223341120803578
0.15948313765591915
0.15628846016561343
0.15271638040297658
0.14887121115381277
0.14488437331933435
0.14090153938041894
0.13706838181793732
0.13351632153310317
0.13034967131172306
0.12763543281965303
0.1253967458706499
0.12361063119789963
0.12221024768248562
0.12109144308554341
0.12012295705280557
0.1191592776503359
0.11805489294420302
